ECG,Time
0.031373292129550166,0.0
0.05776982566656017,0.002777777777777778
-0.04396161205660886,0.005555555555555556
0.13694170593914912,0.008333333333333333
0.12703891320628538,0.011111111111111112
0.09681636400889754,0.013888888888888888
0.14613001795339092,0.016666666666666666
0.1747915164681579,0.019444444444444445
0.18536477006022445,0.022222222222222223
0.24944184660214735,0.025
0.2688587451192439,0.027777777777777776
0.3443922618063315,0.030555555555555555
0.3075964056681374,0.03333333333333333
0.3577986621006759,0.03611111111111111
0.33694118499914827,0.03888888888888889
0.405104590599394,0.041666666666666664
0.3736134985175462,0.044444444444444446
0.5140720177954322,0.04722222222222222
0.4596765981542319,0.05
0.5447658968858994,0.05277777777777778
0.4878924973987885,0.05555555555555555
0.5483468828471442,0.058333333333333334
0.646377417908811,0.06111111111111111
0.6219120701544435,0.06388888888888888
0.620142176245518,0.06666666666666667
0.6159949709671061,0.06944444444444445
0.6271807857990013,0.07222222222222222
0.66950345781464,0.075
0.7542387762946393,0.07777777777777778
0.741485747312554,0.08055555555555556
0.7660073378801517,0.08333333333333333
0.7563431043833493,0.08611111111111111
0.7755801817368068,0.08888888888888889
0.8704366767415425,0.09166666666666666
0.8731276452441704,0.09444444444444444
0.8837652740626689,0.09722222222222222
0.8943498672469204,0.1
1.014712613419328,0.10277777777777777
1.020887004875329,0.10555555555555556
0.9414829683667507,0.10833333333333334
0.8920987296643144,0.1111111111111111
1.015574671464519,0.11388888888888889
1.0056441586133344,0.11666666666666667
0.8858642834557785,0.11944444444444445
1.0219603520009408,0.12222222222222222
1.0300454112468664,0.125
1.078021988812458,0.12777777777777777
1.138659499875303,0.13055555555555556
3.081241314603023,0.13333333333333333
1.1399275360531325,0.1361111111111111
1.0894330656155982,0.1388888888888889
1.1095235220887518,0.14166666666666666
1.070404620766439,0.14444444444444443
1.1313561037855413,0.14722222222222223
4.018943310727622,0.15
1.1183851726974763,0.1527777777777778
1.1353628560643576,0.15555555555555556
1.175510587191699,0.15833333333333333
1.1982215919885892,0.16111111111111112
1.1089414023125235,0.1638888888888889
1.1896323918662601,0.16666666666666666
1.0959679635547126,0.16944444444444445
1.13908834732529,0.17222222222222222
1.171794541489743,0.175
3.887064747490954,0.17777777777777778
1.138188148867888,0.18055555555555555
1.2273020690332048,0.18333333333333332
1.162906595432288,0.18611111111111112
1.1665827101750663,0.18888888888888888
1.2241728797104372,0.19166666666666668
1.18161655337764,0.19444444444444445
1.214945116255061,0.19722222222222222
1.2588356852203282,0.2
1.1874106782990694,0.20277777777777778
1.1520347208769302,0.20555555555555555
1.0963241920122124,0.20833333333333334
1.1907597082853245,0.2111111111111111
1.1920325738513902,0.21388888888888888
1.0987063352218818,0.21666666666666667
1.1703480490403468,0.21944444444444444
3.990108146452725,0.2222222222222222
1.0659726489916825,0.225
1.0776668938102387,0.22777777777777777
1.17038161644336,0.23055555555555557
1.0821633790586187,0.23333333333333334
1.17619812985199,0.2361111111111111
1.1403501369595708,0.2388888888888889
1.0578706813104863,0.24166666666666667
1.1286367500562162,0.24444444444444444
1.0656941037493486,0.24722222222222223
0.9670483595661717,0.25
1.083300397973162,0.25277777777777777
1.073327362613377,0.25555555555555554
1.0828081199648372,0.25833333333333336
0.9401402228274198,0.2611111111111111
1.022837877317853,0.2638888888888889
0.9153983018789392,0.26666666666666666
0.9443252294973806,0.26944444444444443
0.9746615897717672,0.2722222222222222
0.8354271856795784,0.275
0.9319730805287776,0.2777777777777778
0.8750080499142892,0.28055555555555556
0.8353927514724779,0.2833333333333333
0.7471254307304842,0.2861111111111111
0.8112383316188758,0.28888888888888886
3.895941731971827,0.2916666666666667
0.8629665827660344,0.29444444444444445
0.733417427812153,0.2972222222222222
0.6894797423632835,0.3
0.6432726639735871,0.30277777777777776
0.6363450839579927,0.3055555555555556
0.6256046077559407,0.30833333333333335
0.6450770990115103,0.3111111111111111
0.6641326926745953,0.3138888888888889
2.8563310393762227,0.31666666666666665
0.48879190181118337,0.3194444444444444
0.4078609640237037,0.32222222222222224
0.5449634181528875,0.325
0.45157473998086867,0.3277777777777778
0.48453552579823506,0.33055555555555555
0.36148870219966905,0.3333333333333333
0.3886170300642105,0.33611111111111114
0.4733346511555214,0.3388888888888889
0.3721877413256436,0.3416666666666667
0.28138973671632866,0.34444444444444444
0.32433811379014804,0.3472222222222222
0.1302273077896294,0.35
0.3177350402054785,0.3527777777777778
0.1496707949781463,0.35555555555555557
0.10856835949611514,0.35833333333333334
0.16862247779513623,0.3611111111111111
0.20816412960573785,0.3638888888888889
0.03580270149137384,0.36666666666666664
0.04735122142768741,0.36944444444444446
0.08508996502288454,0.37222222222222223
0.010062073906264322,0.375
0.01844067639567892,0.37777777777777777
-0.06529720719356205,0.38055555555555554
-0.06438147664985074,0.38333333333333336
-0.050535890719597756,0.3861111111111111
-0.18528870367441536,0.3888888888888889
-0.17599637608689606,0.39166666666666666
-0.1806423450784708,0.39444444444444443
-0.22277875424654628,0.3972222222222222
-0.1440720436507385,0.4
-0.2383011879561096,0.4027777777777778
-0.2384288850022633,0.40555555555555556
-0.31728272274101604,0.4083333333333333
-0.42158021017305625,0.4111111111111111
-0.3911138696552804,0.41388888888888886
-0.41691008848679567,0.4166666666666667
-0.48781066567599285,0.41944444444444445
-0.4606511218439555,0.4222222222222222
-0.40446624949239396,0.425
-0.4838867787498838,0.42777777777777776
-0.5127331849997662,0.4305555555555556
-0.44495415873414507,0.43333333333333335
-0.6284865169929675,0.4361111111111111
-0.6047517111562386,0.4388888888888889
-0.6296205724882159,0.44166666666666665
-0.7529643821774157,0.4444444444444444
2.3008366486203142,0.44722222222222224
-0.5867891818525844,0.45
1.4283193241463685,0.4527777777777778
1.683429025253104,0.45555555555555555
-0.7843146065796482,0.4583333333333333
-0.7688536014499298,0.46111111111111114
-0.7777444887592037,0.4638888888888889
-0.8546505260678362,0.4666666666666667
-0.8147460900040386,0.46944444444444444
-0.766162315154409,0.4722222222222222
-0.7905271427563306,0.475
-0.947135271353511,0.4777777777777778
-0.9771661071997085,0.48055555555555557
-0.9059561627359233,0.48333333333333334
1.8208903186571943,0.4861111111111111
-0.982616616477255,0.4888888888888889
-1.0401210982765603,0.49166666666666664
-1.0079097293110995,0.49444444444444446
-1.0407600018200955,0.49722222222222223
-1.0305328587422302,0.5
-0.9898631838082749,0.5027777777777778
-1.1302256977518377,0.5055555555555555
-1.0876528868978437,0.5083333333333333
-1.1466704360174647,0.5111111111111111
-1.1319240785664013,0.5138888888888888
-1.1664422190119452,0.5166666666666667
-1.0916497429006344,0.5194444444444445
-1.1095841763825345,0.5222222222222223
-1.1440780475885548,0.525
-1.1285845128155003,0.5277777777777778
-1.1921571654104426,0.5305555555555556
-1.1601203352116758,0.5333333333333333
-1.0934544387952438,0.5361111111111111
-1.2203817835103463,0.5388888888888889
-1.1745148910549101,0.5416666666666666
-1.2177379424227146,0.5444444444444444
-1.2223965458359285,0.5472222222222223
-1.20008503050019,0.55
-1.164622651517291,0.5527777777777778
-1.1460039414799859,0.5555555555555556
-1.2565442897826284,0.5583333333333333
-1.2730999075990077,0.5611111111111111
-1.1745291144502286,0.5638888888888889
-1.2236515374899992,0.5666666666666667
-1.1406921204837632,0.5694444444444444
-1.2003146506769686,0.5722222222222222
-1.2218230781633008,0.575
-1.0874578824093744,0.5777777777777777
-1.1326895864265456,0.5805555555555556
-1.1665360725136342,0.5833333333333334
-1.138335684541666,0.5861111111111111
-1.1952717906576185,0.5888888888888889
1.2835515329173548,0.5916666666666667
-1.197561389993753,0.5944444444444444
-1.1217809210718306,0.5972222222222222
-1.1426170642266207,0.6
-1.1086596415967684,0.6027777777777777
-1.1280463730918637,0.6055555555555555
-1.1955952550155315,0.6083333333333333
-1.1573370589542185,0.6111111111111112
-1.0541309239258514,0.6138888888888889
-1.0650029413133264,0.6166666666666667
-1.0535459064702475,0.6194444444444445
-1.1195225356734528,0.6222222222222222
-0.9859049497375355,0.625
-1.0502362836385801,0.6277777777777778
-1.0050452722885748,0.6305555555555555
-0.956071730583437,0.6333333333333333
-0.9458280356092038,0.6361111111111111
-0.861127051394215,0.6388888888888888
-0.907432566484178,0.6416666666666667
-1.0018318787856302,0.6444444444444445
-1.0216373066012414,0.6472222222222223
-0.8819477538388536,0.65
-0.8073483509457223,0.6527777777777778
-0.8638933377347816,0.6555555555555556
-0.8869966545411574,0.6583333333333333
-0.8818991220582626,0.6611111111111111
-0.7406265892484006,0.6638888888888889
-0.6886405719231697,0.6666666666666666
-0.7468689455828201,0.6694444444444444
-0.8043817025516277,0.6722222222222223
-0.6696111886570436,0.675
-0.6940157565601957,0.6777777777777778
-0.7798204426267552,0.6805555555555556
-0.6957568820239053,0.6833333333333333
1.5862594718026461,0.6861111111111111
-0.511708420593778,0.6888888888888889
-0.6674793267867694,0.6916666666666667
-0.5321954800982319,0.6944444444444444
1.8133062877877864,0.6972222222222222
-0.5786759968440844,0.7
-0.4591711199751808,0.7027777777777777
-0.4123547592823379,0.7055555555555556
-0.48529192332982374,0.7083333333333334
-0.358998262653709,0.7111111111111111
-0.36863821582447553,0.7138888888888889
-0.425963940808896,0.7166666666666667
-0.301846480660036,0.7194444444444444
-0.25734126962914966,0.7222222222222222
-0.17441344369518363,0.725
-0.2589244928760762,0.7277777777777777
-0.23293652254269137,0.7305555555555555
-0.23095261228855618,0.7333333333333333
-0.21508728578246356,0.7361111111111112
-0.11612232992785733,0.7388888888888889
-0.21600986521785326,0.7416666666666667
0.025834252187390758,0.7444444444444445
-0.10129953734634997,0.7472222222222222
3.467224594670062,0.75
0.01445064305772896,0.7527777777777778
0.020289456863365994,0.7555555555555555
0.020269028158233227,0.7583333333333333
0.08422403521579219,0.7611111111111111
0.11060540748625561,0.7638888888888888
0.31163334041695545,0.7666666666666667
0.26391067344774133,0.7694444444444445
0.22488355050579517,0.7722222222222223
0.3192892490883732,0.775
0.3398661546537298,0.7777777777777778
0.2965233614588594,0.7805555555555556
2.3368480746286706,0.7833333333333333
0.4538159227877542,0.7861111111111111
0.4064472576755893,0.7888888888888889
0.31548270519650384,0.7916666666666666
0.44546015766438724,0.7944444444444444
0.4609758408999245,0.7972222222222223
0.5291620858761941,0.8
0.5031574565986188,0.8027777777777778
0.43608716455133895,0.8055555555555556
0.48478037584080763,0.8083333333333333
0.5636949768007298,0.8111111111111111
0.5445141719401269,0.8138888888888889
0.6142033077546861,0.8166666666666667
0.6107206073457001,0.8194444444444444
0.7804715174251605,0.8222222222222222
0.6835089682666547,0.825
0.7134564500243292,0.8277777777777777
0.773226347372844,0.8305555555555556
0.8269223372804804,0.8333333333333334
0.8238326149433026,0.8361111111111111
0.8629255120877704,0.8388888888888889
0.794652851541772,0.8416666666666667
0.9387556389259393,0.8444444444444444
0.8714694075115876,0.8472222222222222
0.8653839862357908,0.85
0.9044253334322845,0.8527777777777777
0.9174936620943984,0.8555555555555555
0.9143462269323678,0.8583333333333333
0.9605115325032819,0.8611111111111112
0.9061913219435309,0.8638888888888889
0.9277693201101055,0.8666666666666667
0.9534968773972711,0.8694444444444445
1.006323205082418,0.8722222222222222
1.0409777503463613,0.875
1.0361306739695249,0.8777777777777778
1.1259149350948134,0.8805555555555555
1.111091020358021,0.8833333333333333
1.0532226824850295,0.8861111111111111
1.1039257123671855,0.8888888888888888
1.1402456121401963,0.8916666666666667
1.1570432953017864,0.8944444444444445
1.1126273156957232,0.8972222222222223
3.011542908511757,0.9
1.058945638703547,0.9027777777777778
1.1395176681422374,0.9055555555555556
1.1175530304856935,0.9083333333333333
3.813052921381889,0.9111111111111111
1.1470918153452754,0.9138888888888889
1.2725078814633928,0.9166666666666666
1.2447964932890923,0.9194444444444444
1.292599109626434,0.9222222222222223
1.1894070309715954,0.925
1.3727931449819804,0.9277777777777778
1.2295052569536933,0.9305555555555556
1.2024043976881067,0.9333333333333333
1.2087108140428995,0.9361111111111111
1.1932429080209745,0.9388888888888889
1.1649644005153266,0.9416666666666667
1.192714972929369,0.9444444444444444
1.2060174133929042,0.9472222222222222
1.2054215729122375,0.95
1.1994949672493505,0.9527777777777777
1.1942196060523413,0.9555555555555556
3.1864084681698603,0.9583333333333334
1.205861384174474,0.9611111111111111
3.551358561109642,0.9638888888888889
1.1814089112943407,0.9666666666666667
1.2018200690452918,0.9694444444444444
1.2395335669741359,0.9722222222222222
1.2140429333127465,0.975
1.1269729066805294,0.9777777777777777
1.0871281006207236,0.9805555555555555
1.178006398143123,0.9833333333333333
1.203190469588756,0.9861111111111112
0.9779786931945844,0.9888888888888889
1.0939072074733538,0.9916666666666667
1.07735823447431,0.9944444444444445
1.068042988535587,0.9972222222222222
1.1297275528310446,1.0
0.956501934953885,1.0027777777777778
0.9846955979233963,1.0055555555555555
1.008743109586023,1.0083333333333333
1.0383011485150182,1.011111111111111
0.8665718511582909,1.0138888888888888
0.9842828821367713,1.0166666666666666
0.9451742680588376,1.0194444444444444
0.9364511056966909,1.0222222222222221
0.8691215593149302,1.025
0.92230293196248,1.0277777777777777
3.9626242443246333,1.0305555555555554
0.8309541980494106,1.0333333333333334
0.800914211499553,1.0361111111111112
0.8210068484669203,1.038888888888889
0.670110540836618,1.0416666666666667
0.7984854559021624,1.0444444444444445
0.7339698962990392,1.0472222222222223
0.7441604353328714,1.05
0.7245118949511955,1.0527777777777778
0.7068275566167044,1.0555555555555556
0.7068860532709318,1.0583333333333333
0.6979283862716775,1.0611111111111111
0.5950854544868405,1.0638888888888889
0.6496670940923505,1.0666666666666667
0.44574878831522347,1.0694444444444444
0.40260224070701117,1.0722222222222222
0.6196093438129647,1.075
0.4082763678353186,1.0777777777777777
3.407717915164457,1.0805555555555555
0.45196642972325396,1.0833333333333333
0.3928287913986491,1.086111111111111
0.4943696348218786,1.0888888888888888
0.5081975342952124,1.0916666666666666
0.29206934459387646,1.0944444444444446
0.26226614492674616,1.0972222222222223
0.2955087188388881,1.1
0.2483040913047818,1.1027777777777779
0.2840707970114003,1.1055555555555556
0.2844730366099103,1.1083333333333334
0.11384863149642027,1.1111111111111112
0.1876602156958609,1.113888888888889
0.11682572997115816,1.1166666666666667
0.12541869956557536,1.1194444444444445
1.465417257999284,1.1222222222222222
0.09519993683940076,1.125
-0.017212287186416084,1.1277777777777778
-0.04174459503517218,1.1305555555555555
-0.03646829600964703,1.1333333333333333
-0.026286817549031886,1.136111111111111
-0.13934101208049285,1.1388888888888888
2.607859536842405,1.1416666666666666
-0.14371756623773443,1.1444444444444444
-0.2857344850808681,1.1472222222222221
-0.19239669879592833,1.15
-0.21748733804081904,1.1527777777777777
-0.24327660663163367,1.1555555555555554
-0.30354884953165995,1.1583333333333334
1.525860216964506,1.1611111111111112
-0.4526225812798837,1.163888888888889
-0.3765915019945197,1.1666666666666667
-0.29476114787506136,1.1694444444444445
-0.4097247751680815,1.1722222222222223
-0.4925289898007497,1.175
-0.5188153666425434,1.1777777777777778
-0.590559361333877,1.1805555555555556
-0.4983451210191912,1.1833333333333333
2.806739798244831,1.1861111111111111
-0.6170576021042468,1.1888888888888889
2.068137738603604,1.1916666666666667
-0.693783812065405,1.1944444444444444
-0.6042240636152534,1.1972222222222222
-0.7705149986859592,1.2
-0.8048726585455911,1.2027777777777777
-0.6954956434749158,1.2055555555555555
-0.6271661051632311,1.2083333333333333
-0.8291174293278364,1.211111111111111
-0.7273211199767996,1.2138888888888888
-0.7744680083403306,1.2166666666666666
-0.809787190017025,1.2194444444444446
-0.8041769285617266,1.2222222222222223
-0.8887532841754153,1.225
-0.8813752888779346,1.2277777777777779
-0.9651842185433921,1.2305555555555556
-0.9501572515244279,1.2333333333333334
-0.9306338111390906,1.2361111111111112
-0.9293790654639194,1.238888888888889
-1.0003184430908272,1.2416666666666667
-1.03060917229875,1.2444444444444445
-0.9776065751084033,1.2472222222222222
-0.9877162106925419,1.25
-0.9784245000208377,1.2527777777777778
-0.97744556117379,1.2555555555555555
-1.1591790366424974,1.2583333333333333
-1.1218302614688533,1.261111111111111
1.0418551751109912,1.2638888888888888
-1.1676338222089768,1.2666666666666666
-1.1477740196784476,1.2694444444444444
-1.230780137849329,1.2722222222222221
-1.0959147855066413,1.275
-1.094803464634405,1.2777777777777777
-1.165500006371242,1.2805555555555554
-1.2192901877903293,1.2833333333333334
1.499017713750972,1.2861111111111112
-1.1629485807226063,1.288888888888889
-1.1239730344880645,1.2916666666666667
-1.2027836817876723,1.2944444444444445
-1.196272482746757,1.2972222222222223
-1.1782378934359266,1.3
-1.1287508388929501,1.3027777777777778
-1.1140801074528806,1.3055555555555556
-1.1701448400443688,1.3083333333333333
-1.2244032358996075,1.3111111111111111
-1.21075199454243,1.3138888888888889
-1.2556566563076919,1.3166666666666667
-1.2629135115673775,1.3194444444444444
-1.2254840648958516,1.3222222222222222
-1.224419081395097,1.325
-1.220365707059687,1.3277777777777777
-1.246714424816732,1.3305555555555555
-1.151821813086942,1.3333333333333333
-1.1723754384226643,1.336111111111111
-1.2450389655583827,1.3388888888888888
-1.193586375451776,1.3416666666666666
-1.0918515431562046,1.3444444444444446
-1.1779951017844705,1.3472222222222223
-1.1468241158933283,1.35
-1.2433554361881467,1.3527777777777779
-1.2359471621278093,1.3555555555555556
-1.1679692966875097,1.3583333333333334
-1.0326065560013968,1.3611111111111112
-1.0873921197774576,1.363888888888889
-1.0098197142898766,1.3666666666666667
-1.011307592788166,1.3694444444444445
-1.0411161138106564,1.3722222222222222
-1.113194862381144,1.375
-1.0809532428483921,1.3777777777777778
-1.011124522582434,1.3805555555555555
-0.9492682448746348,1.3833333333333333
-0.9454575150834791,1.386111111111111
-0.9758518472227019,1.3888888888888888
-1.02152326836461,1.3916666666666666
-0.9707245302510693,1.3944444444444444
-0.840243711493805,1.3972222222222221
-0.888588290889243,1.4
-0.895765426278081,1.4027777777777777
-0.8713643716153714,1.4055555555555554
-0.8701688777410538,1.4083333333333334
-0.8102884165145167,1.4111111111111112
-0.8116429068836223,1.413888888888889
-0.8266521618209619,1.4166666666666667
-0.8115961261548676,1.4194444444444445
-0.8204112089161874,1.4222222222222223
-0.7605257521022951,1.425
2.414204874855589,1.4277777777777778
-0.7875836353267556,1.4305555555555556
-0.6571500967492286,1.4333333333333333
-0.7445223768889719,1.4361111111111111
-0.6271043689330238,1.4388888888888889
-0.5999166022072384,1.4416666666666667
-0.48757438099711736,1.4444444444444444
-0.5485151479391994,1.4472222222222222
-0.5547204375258463,1.45
-0.49397487199748935,1.4527777777777777
-0.4228272922223931,1.4555555555555555
-0.5271645774225129,1.4583333333333333
-0.43057180302977555,1.461111111111111
-0.3637453086315946,1.4638888888888888
-0.41754690117994425,1.4666666666666666
-0.38602500402662343,1.4694444444444446
-0.33644588961217164,1.4722222222222223
-0.2852792996751192,1.475
-0.29783820862678256,1.4777777777777779
-0.23814257872785874,1.4805555555555556
-0.2274018284188648,1.4833333333333334
-0.13402516346850882,1.4861111111111112
-0.16803800703419985,1.488888888888889
-0.09179474629025725,1.4916666666666667
-0.13636020078205513,1.4944444444444445
-0.06518759887314367,1.4972222222222222
-0.11977475619073764,1.5
0.09010869997315724,1.5027777777777778
0.022645316352198474,1.5055555555555555
0.11528899640949677,1.5083333333333333
0.027922804851255256,1.511111111111111
0.14643480277580873,1.5138888888888888
0.1545592685478727,1.5166666666666666
0.10026890162890431,1.5194444444444444
0.09621461804659567,1.5222222222222221
0.20131034023095853,1.525
0.22264275122926508,1.5277777777777777
0.22739599337191668,1.5305555555555554
0.2752223733979182,1.5333333333333334
0.3643939585879422,1.5361111111111112
0.36110918459969493,1.538888888888889
2.5202940801756557,1.5416666666666667
0.38609327319905573,1.5444444444444445
0.45490396515860015,1.5472222222222223
0.48839816324270735,1.55
0.5171881880017377,1.5527777777777778
0.501794544092861,1.5555555555555556
2.769690624884739,1.5583333333333333
0.46508339441274854,1.5611111111111111
0.6087107902173637,1.5638888888888889
0.6260581196953682,1.5666666666666667
0.5986465120997997,1.5694444444444444
0.6104955884396708,1.5722222222222222
0.6354060101437645,1.575
0.6387666386091474,1.5777777777777777
0.7338154344695389,1.5805555555555555
0.7186893162632921,1.5833333333333333
0.8249033552691457,1.586111111111111
0.8147226607816853,1.5888888888888888
0.761079828754161,1.5916666666666666
0.7706382887339298,1.5944444444444446
0.7589832967346573,1.5972222222222223
0.90625478933245,1.6
0.8731119846604815,1.6027777777777779
0.8662406433234078,1.6055555555555556
0.9214164815551634,1.6083333333333334
0.8872759749133211,1.6111111111111112
0.9418311261083927,1.613888888888889
0.9708435764993819,1.6166666666666667
0.960765853421983,1.6194444444444445
3.6715491668339895,1.6222222222222222
1.0300196632526433,1.625
1.0375919636046522,1.6277777777777778
1.0514178446372109,1.6305555555555555
0.9622618454702392,1.6333333333333333
1.0407472371701312,1.636111111111111
1.064251907590973,1.6388888888888888
1.0828299053245514,1.6416666666666666
1.0880366989963761,1.6444444444444444
1.2353776135049586,1.6472222222222221
1.208709437843461,1.65
1.1159595536956126,1.6527777777777777
1.1368627285200634,1.6555555555555554
1.2139661637778736,1.6583333333333334
3.521605723279112,1.6611111111111112
1.2061513213808914,1.663888888888889
1.2634690162115454,1.6666666666666667
1.1797241566036047,1.6694444444444445
1.200004628399653,1.6722222222222223
1.2314687121970995,1.675
1.2242982640905968,1.6777777777777778
1.0741199172908589,1.6805555555555556
1.138924022737815,1.6833333333333333
1.210415826646683,1.6861111111111111
1.2047530318014081,1.6888888888888889
1.2363797273802568,1.6916666666666667
1.2177864533081668,1.6944444444444444
1.2151882241248435,1.6972222222222222
1.2416469039066511,1.7
1.14640334746774,1.7027777777777777
1.2954733961940967,1.7055555555555555
1.148863459458969,1.7083333333333333
1.1090366645589396,1.711111111111111
1.1627339766449376,1.7138888888888888
1.1943719221554057,1.7166666666666666
1.2147296421134401,1.7194444444444446
1.1567835095077001,1.7222222222222223
1.1782665498317872,1.725
1.1833121275893257,1.7277777777777779
1.1345819479403998,1.7305555555555556
1.0885864802616607,1.7333333333333334
1.112599911946086,1.7361111111111112
1.0126649758961657,1.738888888888889
1.1557577630278,1.7416666666666667
1.006545594373877,1.7444444444444445
3.627255354105401,1.7472222222222222
1.014152586417174,1.75
1.022568266142644,1.7527777777777778
1.0017861279633247,1.7555555555555555
1.0287788238103104,1.7583333333333333
1.0097743174023575,1.761111111111111
0.9374087637437041,1.7638888888888888
0.9198986123251149,1.7666666666666666
1.0649973978412421,1.7694444444444444
0.9723044615539649,1.7722222222222221
0.975190384499376,1.775
0.9185459287365498,1.7777777777777777
0.8887655673196005,1.7805555555555554
0.9473054507147685,1.7833333333333334
0.7623714057465301,1.7861111111111112
0.8521465116664868,1.788888888888889
0.94206438642877,1.7916666666666667
0.8174585734458686,1.7944444444444445
0.7995878979622,1.7972222222222223
0.7518349607650642,1.8
0.5981950948225863,1.8027777777777778
0.6659476201032632,1.8055555555555556
2.6465374428367285,1.8083333333333333
0.6401105206755331,1.8111111111111111
0.5373028999930491,1.8138888888888889
0.6079982406084153,1.8166666666666667
0.6423049215977256,1.8194444444444444
0.48482818858583576,1.8222222222222222
0.37795529800503486,1.825
0.5025201446883251,1.8277777777777777
0.423753607026774,1.8305555555555555
0.4185910242711864,1.8333333333333333
0.35801952553992217,1.836111111111111
0.3361093668279551,1.8388888888888888
0.41381489982657105,1.8416666666666666
0.37148782623458854,1.8444444444444446
0.30934968275652186,1.8472222222222223
0.32350585587514763,1.85
0.20442376127270256,1.8527777777777779
0.2556258859010283,1.8555555555555556
0.21263616292826243,1.8583333333333334
0.27170640601038387,1.8611111111111112
0.13977896773613024,1.863888888888889
0.10770169139234427,1.8666666666666667
0.1250373615135694,1.8694444444444445
0.19149172021212876,1.8722222222222222
0.025328098240479446,1.875
0.04761210336130914,1.8777777777777778
0.033928461981369194,1.8805555555555555
-0.1017920581515806,1.8833333333333333
0.004968877178945549,1.886111111111111
0.008977627575853062,1.8888888888888888
-0.13868973529994288,1.8916666666666666
-0.09224253875862432,1.8944444444444444
-0.17708994114511142,1.8972222222222221
-0.1839750208108566,1.9
-0.20455511317817499,1.9027777777777777
-0.2017331657040689,1.9055555555555554
-0.2861401966704903,1.9083333333333334
1.6743244335182146,1.9111111111111112
-0.3554165658866402,1.913888888888889
-0.34018271228758024,1.9166666666666667
-0.2742471604314996,1.9194444444444445
-0.49139302212837893,1.9222222222222223
-0.33475781812579514,1.925
-0.4208017897736709,1.9277777777777778
-0.45359852981980203,1.9305555555555556
-0.4640626469859972,1.9333333333333333
-0.40921671439827156,1.9361111111111111
-0.5367124021275291,1.9388888888888889
2.6212280267586623,1.9416666666666667
-0.6298717300254019,1.9444444444444444
-0.6940152716886828,1.9472222222222222
-0.5845720033656513,1.95
-0.6713145633030541,1.9527777777777777
-0.7556896651536148,1.9555555555555555
-0.791107373675707,1.9583333333333333
-0.7534615669007059,1.961111111111111
-0.7015128520124542,1.9638888888888888
-0.8008401344375138,1.9666666666666666
-0.7955310518531573,1.9694444444444446
-0.8162706047250681,1.9722222222222223
-0.7814520104308136,1.975
-0.8125737302613067,1.9777777777777779
-0.9723062035500987,1.9805555555555556
-0.8880466158707201,1.9833333333333334
-0.9336476309456887,1.9861111111111112
-1.0033068097171918,1.988888888888889
-0.9746947506446935,1.9916666666666667
-1.0483109266732575,1.9944444444444445
-0.956395945879016,1.9972222222222222
-0.9965239989117357,2.0
-1.0414798026413634,2.0027777777777778
-1.0208905677245743,2.0055555555555555
-1.0081989575159185,2.0083333333333333
-1.1546861453550592,2.011111111111111
-1.1005975843440665,2.013888888888889
-1.0382328156292777,2.0166666666666666
1.2695730060391923,2.0194444444444444
-1.2280820242692292,2.022222222222222
-1.1232661665513881,2.025
-1.2256247500775268,2.0277777777777777
-1.1802628700742726,2.0305555555555554
-1.1354438925646826,2.033333333333333
-1.1554211876640537,2.036111111111111
-1.162494508468321,2.0388888888888888
-1.2949397895336836,2.0416666666666665
-1.1879150566957197,2.0444444444444443
-1.1926797416153174,2.047222222222222
-1.2190341672856468,2.05
-1.2165958880796646,2.0527777777777776
-1.1582286122543233,2.0555555555555554
-1.171126627359071,2.058333333333333
-1.2376728448186132,2.061111111111111
-1.2501145599856782,2.063888888888889
-1.1866462997115585,2.066666666666667
-1.2155803407575643,2.0694444444444446
-1.1366876851962417,2.0722222222222224
-1.0936125343697443,2.075
0.9659097164409731,2.077777777777778
-1.1444074703033222,2.0805555555555557
-1.0604672388081189,2.0833333333333335
-1.2591779916182815,2.0861111111111112
-1.1516606592421943,2.088888888888889
-1.216337807656456,2.091666666666667
-1.1246901664445563,2.0944444444444446
-1.1068940702867682,2.0972222222222223
-1.1560567962760724,2.1
-1.1898439376223156,2.102777777777778
-1.1202221405154333,2.1055555555555556
-1.2124806548161344,2.1083333333333334
2.0215403990872134,2.111111111111111
-1.1492867544438847,2.113888888888889
-1.1422237425591861,2.1166666666666667
-1.114309891659302,2.1194444444444445
-1.125256961684732,2.1222222222222222
1.9535020069012516,2.125
-1.073866379098622,2.1277777777777778
-1.0459173808658995,2.1305555555555555
-0.976458284593946,2.1333333333333333
-1.0574641853950533,2.136111111111111
-0.9422112740254517,2.138888888888889
-0.9592138259069327,2.1416666666666666
-1.0445365762071475,2.1444444444444444
-0.8061417602636216,2.147222222222222
-0.9347866038516344,2.15
-0.9295370924830285,2.1527777777777777
-0.9391335061659001,2.1555555555555554
0.9606658886101095,2.158333333333333
-0.7423226190470824,2.161111111111111
-0.8557450851035276,2.1638888888888888
-0.8126432513891232,2.1666666666666665
-0.7939231785087226,2.1694444444444443
2.746511064801381,2.172222222222222
-0.7475427109004954,2.175
-0.7004422137262851,2.1777777777777776
-0.6927484882677677,2.1805555555555554
-0.7029524328316279,2.183333333333333
-0.6428006724646385,2.186111111111111
-0.5356382896289363,2.188888888888889
3.0634883521278296,2.191666666666667
-0.619534723521024,2.1944444444444446
-0.5968815469066916,2.1972222222222224
-0.6090841560683719,2.2
-0.5180573644549863,2.202777777777778
-0.40629950989228036,2.2055555555555557
1.8180653682976815,2.2083333333333335
-0.39469772336286707,2.2111111111111112
-0.5651969968582133,2.213888888888889
-0.41190129855464774,2.216666666666667
-0.3889228186362156,2.2194444444444446
-0.3334988462389928,2.2222222222222223
-0.36103023502815745,2.225
-0.3458057405624235,2.227777777777778
-0.29042951125879357,2.2305555555555556
-0.19112624621346333,2.2333333333333334
-0.298821179740173,2.236111111111111
-0.2608860722891151,2.238888888888889
-0.13997045510426342,2.2416666666666667
-0.11224041589490648,2.2444444444444445
-0.09605923639245689,2.2472222222222222
-0.047212287332858587,2.25
-0.03942205698370753,2.2527777777777778
-0.02799461984811384,2.2555555555555555
0.03291114237743525,2.2583333333333333
0.030972215813042166,2.261111111111111
-0.00431823916385754,2.263888888888889
0.1133028932747818,2.2666666666666666
0.14243104557392572,2.2694444444444444
0.197260013486441,2.272222222222222
0.11894226173754431,2.275
0.22973824402802395,2.2777777777777777
0.19762577691212324,2.2805555555555554
0.36780336296048916,2.283333333333333
0.42349809417177364,2.286111111111111
0.31810917931893734,2.2888888888888888
0.3768947955569819,2.2916666666666665
0.3175643641648077,2.2944444444444443
0.5267817351993127,2.297222222222222
0.4366390396815287,2.3
0.4289780085523901,2.3027777777777776
0.5237864223395317,2.3055555555555554
0.4779395846298872,2.308333333333333
0.5524861867758819,2.311111111111111
3.249015100748756,2.313888888888889
0.5409420925982926,2.316666666666667
0.5457709475618264,2.3194444444444446
0.6666734681504085,2.3222222222222224
0.6080504318238615,2.325
0.6684051484906255,2.327777777777778
0.7036620774126949,2.3305555555555557
0.7270797839351422,2.3333333333333335
0.7771702351181566,2.3361111111111112
3.7055716958403178,2.338888888888889
0.7817246157572115,2.341666666666667
0.8552067592314166,2.3444444444444446
0.8186923704403214,2.3472222222222223
0.7844458680790346,2.35
0.7321106547659607,2.352777777777778
0.8908651831816013,2.3555555555555556
0.9038671488367421,2.3583333333333334
0.9496298440854787,2.361111111111111
0.8787242123389112,2.363888888888889
0.9872170939459753,2.3666666666666667
1.080589545024609,2.3694444444444445
1.0165429522488159,2.3722222222222222
1.0451056339630238,2.375
0.9409376274381215,2.3777777777777778
0.9917526201067953,2.3805555555555555
1.0504954076470483,2.3833333333333333
1.094288534694537,2.386111111111111
1.0654926890088439,2.388888888888889
3.8376435881013764,2.3916666666666666
2.750529749818326,2.3944444444444444
1.0761895434183733,2.397222222222222
1.1487309588709713,2.4
1.1158533247165312,2.4027777777777777
1.1371590956263886,2.4055555555555554
1.1047724419388323,2.408333333333333
1.1536317330669204,2.411111111111111
1.2486358055242874,2.4138888888888888
1.1588484272388628,2.4166666666666665
1.1908380483100813,2.4194444444444443
1.2008079418544326,2.422222222222222
1.1896762420301787,2.425
1.159848357059299,2.4277777777777776
1.237882418343066,2.4305555555555554
1.1688317770947305,2.433333333333333
1.122233594618871,2.436111111111111
1.1813346675692655,2.438888888888889
1.1228771124901593,2.441666666666667
1.1432782189827055,2.4444444444444446
1.2947001361754078,2.4472222222222224
1.226819339897464,2.45
1.2246988944079347,2.452777777777778
1.2158988906755943,2.4555555555555557
1.1573100148263407,2.4583333333333335
1.2052189157322089,2.4611111111111112
1.2059497314506669,2.463888888888889
1.2062272513339196,2.466666666666667
1.123951812018508,2.4694444444444446
1.1007946760943599,2.4722222222222223
1.1119103028365611,2.475
1.2104138412515921,2.477777777777778
1.1522845782348254,2.4805555555555556
1.1365002836592444,2.4833333333333334
1.1446547121565485,2.486111111111111
1.2158426140271197,2.488888888888889
1.0761825293323974,2.4916666666666667
1.0433695538590362,2.4944444444444445
1.1239934794014685,2.4972222222222222
1.113442554482458,2.5
1.066411547870781,2.5027777777777778
0.9699735637550061,2.5055555555555555
1.027734198771796,2.5083333333333333
0.99810871177627,2.511111111111111
0.9991991017733255,2.513888888888889
0.9532833663729898,2.5166666666666666
0.9530393655219616,2.5194444444444444
0.9391217084478359,2.522222222222222
0.9094655357199499,2.525
0.9792681409636562,2.5277777777777777
0.9279437454200895,2.5305555555555554
0.8729152645577155,2.533333333333333
0.8751186404026254,2.536111111111111
0.8730531875861318,2.5388888888888888
0.9427279177610656,2.5416666666666665
0.8274864090424602,2.5444444444444443
0.7785678473573211,2.547222222222222
0.7088992622358223,2.55
3.169308909512572,2.5527777777777776
0.6531733962508275,2.5555555555555554
0.7258085397670512,2.558333333333333
0.7256753477344712,2.561111111111111
0.6054927409929357,2.563888888888889
0.5623247665108362,2.566666666666667
0.530978189974549,2.5694444444444446
0.6384085359353516,2.5722222222222224
0.549899635434213,2.575
0.5057782609417472,2.577777777777778
0.6171064684464638,2.5805555555555557
0.5165545277370764,2.5833333333333335
0.5033903430798425,2.5861111111111112
0.41780878425011714,2.588888888888889
0.43579802048896876,2.591666666666667
2.8343214041223517,2.5944444444444446
0.311390277159236,2.5972222222222223
0.33955517276182634,2.6
0.2790670789328131,2.602777777777778
0.2547276992609582,2.6055555555555556
0.26409366933219697,2.6083333333333334
0.11087692860786734,2.611111111111111
0.2385859482110021,2.613888888888889
0.11830370427859707,2.6166666666666667
0.20201777355505224,2.6194444444444445
0.009175475045772555,2.6222222222222222
0.10365038245966632,2.625
-0.01653843891215688,2.6277777777777778
0.03363665697198415,2.6305555555555555
0.0561863227714149,2.6333333333333333
-0.03277432222549192,2.636111111111111
-0.07725991527822725,2.638888888888889
-0.07465726925001556,2.6416666666666666
-0.1306347777184788,2.6444444444444444
-0.11618049951195622,2.647222222222222
-0.10045339222156763,2.65
-0.2706878643765853,2.6527777777777777
-0.3202484322291005,2.6555555555555554
-0.19016414774658763,2.658333333333333
-0.39515587627450677,2.661111111111111
-0.2816848199346428,2.6638888888888888
-0.3331132054812567,2.6666666666666665
-0.3895909910975848,2.6694444444444443
-0.44541755380084214,2.672222222222222
-0.41668149037426416,2.675
-0.45271914064087104,2.6777777777777776
-0.5329472276669238,2.6805555555555554
-0.466702657598011,2.683333333333333
-0.5026062994273511,2.686111111111111
-0.6054667943693572,2.688888888888889
-0.5306368052793997,2.691666666666667
-0.6800443152844167,2.6944444444444446
-0.6777334888197734,2.6972222222222224
-0.645584563043398,2.7
-0.6921868920483542,2.702777777777778
-0.7668978000101755,2.7055555555555557
-0.6826381980922753,2.7083333333333335
-0.681796827050621,2.7111111111111112
-0.7295196611490099,2.713888888888889
-0.7534275460901555,2.716666666666667
-0.8351497480442828,2.7194444444444446
-0.8040654026231616,2.7222222222222223
-0.7972690095827994,2.725
-0.8184985622027628,2.727777777777778
-0.8767569097538939,2.7305555555555556
-1.0468472137578453,2.7333333333333334
-0.9445813835771713,2.736111111111111
-0.8983566715594207,2.738888888888889
-1.0705047731737154,2.7416666666666667
-0.9535644299088724,2.7444444444444445
-0.9856676598977825,2.7472222222222222
-0.992476897134379,2.75
-1.0933774452357405,2.7527777777777778
-1.0343623916084153,2.7555555555555555
-1.0753987487998464,2.7583333333333333
1.6638249798805782,2.761111111111111
-1.1149676334216605,2.763888888888889
-1.0897779296769876,2.7666666666666666
-1.1258840575383542,2.7694444444444444
-1.1572078050831447,2.772222222222222
-1.1341407124000102,2.775
-1.1424715058038017,2.7777777777777777
-1.1464280949000836,2.7805555555555554
-1.1190461885398075,2.783333333333333
-1.162130194781971,2.786111111111111
-1.1703716576600662,2.7888888888888888
-1.0969663567101808,2.7916666666666665
-1.1665733488668564,2.7944444444444443
-1.2003841224606016,2.797222222222222
-1.1240638118706403,2.8
-1.1013745848575147,2.8027777777777776
1.1919035444006307,2.8055555555555554
-1.2576901992345668,2.808333333333333
1.392569858145476,2.811111111111111
-1.1270042225622015,2.813888888888889
1.2789183789351142,2.816666666666667
-1.2407845920271772,2.8194444444444446
-1.1601205975384297,2.8222222222222224
-1.1764566226225306,2.825
-1.1665379603165391,2.827777777777778
1.5671432116485025,2.8305555555555557
-1.2300910417473256,2.8333333333333335
-1.115512272177715,2.8361111111111112
-1.242781927697057,2.838888888888889
-1.1662996552133627,2.841666666666667
-1.1778618770863356,2.8444444444444446
-1.2033227460547775,2.8472222222222223
-1.2313145077186756,2.85
-1.2265292214151957,2.852777777777778
-1.1331390322073125,2.8555555555555556
-1.167290430789146,2.8583333333333334
-1.122391813927957,2.861111111111111
-1.0540156874800426,2.863888888888889
-1.1192048257364138,2.8666666666666667
-1.1385033297930562,2.8694444444444445
-1.0713934226485018,2.8722222222222222
-1.0288395971954132,2.875
-1.0502333527295422,2.8777777777777778
-1.0822222907066787,2.8805555555555555
-1.1271800234916785,2.8833333333333333
-1.0018653920212242,2.886111111111111
-1.0248998085596037,2.888888888888889
-1.0158054187252532,2.8916666666666666
-0.9286393622369482,2.8944444444444444
-1.0235767333725807,2.897222222222222
-0.968888344615652,2.9
-0.9119367883217229,2.9027777777777777
-0.9164727553420816,2.9055555555555554
-0.8860624851935648,2.908333333333333
-0.9515068450955563,2.911111111111111
-0.8459399151863336,2.9138888888888888
-0.8100166519244024,2.9166666666666665
-0.77701394382951,2.9194444444444443
-0.749946723095557,2.922222222222222
-0.8634939832809996,2.925
-0.7890916257371445,2.9277777777777776
-0.663739334983245,2.9305555555555554
-0.6465575022334566,2.933333333333333
-0.6512515107826424,2.936111111111111
-0.7076469930001552,2.938888888888889
-0.657367998957983,2.941666666666667
-0.5356132835221834,2.9444444444444446
-0.5433484119910285,2.9472222222222224
-0.6281426371101313,2.95
-0.5486060753632093,2.952777777777778
-0.5148427099696402,2.9555555555555557
-0.5372801678953316,2.9583333333333335
-0.4210804220497707,2.9611111111111112
1.4105985982468585,2.963888888888889
-0.4342684928501537,2.966666666666667
-0.36417249829725573,2.9694444444444446
-0.2937493462741432,2.9722222222222223
-0.3133219362820608,2.975
-0.29572114797666343,2.977777777777778
-0.204476602220299,2.9805555555555556
-0.2683414831501582,2.9833333333333334
-0.24883529099144394,2.986111111111111
-0.2124425623264092,2.988888888888889
-0.22341256204133103,2.9916666666666667
-0.13695648078068323,2.9944444444444445
-0.05562671146385043,2.9972222222222222
-0.06941287480444426,3.0
0.018491342599085303,3.0027777777777778
-0.05073121695594798,3.0055555555555555
-0.010386746309454927,3.0083333333333333
-0.001986212955778499,3.011111111111111
0.10201647541983663,3.013888888888889
0.09941175683430363,3.0166666666666666
0.06687566803837384,3.0194444444444444
0.1682054415310499,3.022222222222222
0.17409228189673315,3.025
0.20627934246225763,3.0277777777777777
0.1741238969435572,3.0305555555555554
0.24532891016851702,3.033333333333333
0.24358648114707981,3.036111111111111
0.34541203543596216,3.0388888888888888
0.26976982417368967,3.0416666666666665
0.31812994053048127,3.0444444444444443
0.4115556023555539,3.047222222222222
0.4076118422735354,3.05
0.5056687735688545,3.0527777777777776
0.46724693546573387,3.0555555555555554
2.665018817322717,3.058333333333333
0.409376295079132,3.061111111111111
0.5336738624728848,3.063888888888889
0.45342192923175817,3.066666666666667
0.6112769674695162,3.0694444444444446
0.6373697370870246,3.0722222222222224
0.6456239761605255,3.075
0.5824798943318106,3.077777777777778
0.7463605913718702,3.0805555555555557
0.6549009474799,3.0833333333333335
0.6944593807585375,3.0861111111111112
0.7071636856180428,3.088888888888889
0.7717224600647488,3.091666666666667
0.8098344440134265,3.0944444444444446
0.791204034698166,3.0972222222222223
0.8311772571068987,3.1
0.7962843262233691,3.102777777777778
0.9581268375126932,3.1055555555555556
0.8392130557463232,3.1083333333333334
3.7573794587569767,3.111111111111111
0.943429369887141,3.113888888888889
0.9125497756576557,3.1166666666666667
0.9886397495799144,3.1194444444444445
1.0671809529640128,3.1222222222222222
0.9298394430408154,3.125
1.0847892453914196,3.1277777777777778
1.0572707050118058,3.1305555555555555
1.0221687974568199,3.1333333333333333
1.1116336905886706,3.136111111111111
1.0174766828814132,3.138888888888889
1.009592091506064,3.1416666666666666
1.2026590551290455,3.1444444444444444
1.0395898080852912,3.147222222222222
1.1039057038844116,3.15
1.1404138454367156,3.1527777777777777
1.0793103024517599,3.1555555555555554
1.0753788951209453,3.158333333333333
1.188823341822718,3.161111111111111
1.1713217716603066,3.1638888888888888
4.41311588553485,3.1666666666666665
1.28460886926198,3.1694444444444443
1.2632137751382224,3.172222222222222
1.1422417652801853,3.175
1.1310114974743632,3.1777777777777776
1.2903903998121886,3.1805555555555554
1.1127025756635749,3.183333333333333
1.1372553761452826,3.186111111111111
1.2548286859246387,3.188888888888889
1.2222625494187616,3.191666666666667
1.2145785856940743,3.1944444444444446
1.2127203461040412,3.1972222222222224
1.266857267664966,3.2
1.1041265244311562,3.202777777777778
1.1256109681363569,3.2055555555555557
1.1042570529197981,3.2083333333333335
1.2076257431209494,3.2111111111111112
1.2385702056081513,3.213888888888889
1.2105752820605635,3.216666666666667
1.0804128610409767,3.2194444444444446
1.2128645262294722,3.2222222222222223
1.1294048083463972,3.225
1.1101726888774806,3.227777777777778
3.6289785572367363,3.2305555555555556
1.175878362572984,3.2333333333333334
1.2138453713908348,3.236111111111111
1.1721472808554825,3.238888888888889
1.1397753038057297,3.2416666666666667
1.0813164054005973,3.2444444444444445
1.106302771806589,3.2472222222222222
1.0705824588819908,3.25
1.1665149605708185,3.2527777777777778
1.0971443565262857,3.2555555555555555
1.0520784268320884,3.2583333333333333
0.9407116920692997,3.261111111111111
1.032633106370093,3.263888888888889
0.9567631572449314,3.2666666666666666
1.0091328646675726,3.2694444444444444
0.9164364406247557,3.272222222222222
0.9911043510194305,3.275
0.8924822752224307,3.2777777777777777
0.8678492161407723,3.2805555555555554
0.9193967297174366,3.283333333333333
0.8492173395956406,3.286111111111111
0.794773645350613,3.2888888888888888
0.8949014741873185,3.2916666666666665
0.8322932452821297,3.2944444444444443
0.777007356754429,3.297222222222222
0.7441984862222734,3.3
0.7158222637067004,3.3027777777777776
0.7314339467402259,3.3055555555555554
0.711946471257153,3.308333333333333
0.6792724250584964,3.311111111111111
0.603626174135145,3.313888888888889
0.5747907205795562,3.316666666666667
0.5625446531317286,3.3194444444444446
0.583916553760691,3.3222222222222224
0.5230716446406898,3.325
0.6111228373347367,3.327777777777778
0.49148394968587006,3.3305555555555557
0.48829364677234915,3.3333333333333335
0.5050985870624897,3.3361111111111112
0.42283935520185534,3.338888888888889
0.40709897115250654,3.341666666666667
3.4978738413538473,3.3444444444444446
0.3454961355335668,3.3472222222222223
0.3402831792806096,3.35
0.3834662584723962,3.352777777777778
0.3646247117155541,3.3555555555555556
2.9968437402821095,3.3583333333333334
0.0971641761176687,3.361111111111111
0.205501263054246,3.363888888888889
0.17759514208433236,3.3666666666666667
0.21508036078328946,3.3694444444444445
0.16746325204995896,3.3722222222222222
0.009643711932723453,3.375
0.046167094733253256,3.3777777777777778
-0.007078236390083634,3.3805555555555555
0.0052473378806027595,3.3833333333333333
-0.025996074741461213,3.386111111111111
-0.1302526421348316,3.388888888888889
-0.06992047774351709,3.3916666666666666
-0.1551129883898913,3.3944444444444444
-0.1592300829789042,3.397222222222222
-0.1430038770983228,3.4
-0.24306489700110595,3.4027777777777777
-0.19465730216245825,3.4055555555555554
-0.21064778808306944,3.408333333333333
2.1561087406649753,3.411111111111111
-0.31564921552973224,3.4138888888888888
-0.3556960582472363,3.4166666666666665
-0.39685960936272013,3.4194444444444443
-0.3926198277999774,3.422222222222222
-0.4015458850447895,3.425
-0.35781574832973256,3.4277777777777776
-0.35197106096622205,3.4305555555555554
-0.43928882903650873,3.433333333333333
-0.5168691394779013,3.436111111111111
-0.5256067159633687,3.438888888888889
-0.5069779262004469,3.441666666666667
-0.5838271719988295,3.4444444444444446
-0.5605178474142085,3.4472222222222224
-0.5869925123025762,3.45
-0.6617349836062542,3.452777777777778
-0.6856233946827228,3.4555555555555557
-0.7289081322221794,3.4583333333333335
-0.7018258824526188,3.4611111111111112
-0.609180321059724,3.463888888888889
-0.7636231911799689,3.466666666666667
-0.7800789031195234,3.4694444444444446
-0.8196213492517717,3.4722222222222223
-0.8777889677706763,3.475
-0.8871191946441432,3.477777777777778
-0.8138473832447986,3.4805555555555556
-0.8038997999878983,3.4833333333333334
-0.8094715272391471,3.486111111111111
-0.9400303041981607,3.488888888888889
-0.9793520409871971,3.4916666666666667
-0.9679756756784653,3.4944444444444445
-1.027655653964136,3.4972222222222222
-0.9018303169540889,3.5
-1.0956955120629566,3.5027777777777778
-1.0207964039069077,3.5055555555555555
-0.9614789436275057,3.5083333333333333
-1.0649689415386792,3.511111111111111
-1.139288169110549,3.513888888888889
-1.0960458350839732,3.5166666666666666
-1.0242809507401889,3.5194444444444444
-1.0143586383955372,3.522222222222222
-1.1870587812060867,3.525
-1.1703116938799714,3.5277777777777777
-1.1678262612613983,3.5305555555555554
-1.1238819793927326,3.533333333333333
-1.1398341349686612,3.536111111111111
-1.1301786422965094,3.5388888888888888
-1.2099083480845232,3.5416666666666665
-1.1479100016635886,3.5444444444444443
-1.142697251476807,3.547222222222222
-1.2162970446737218,3.55
1.3868444144740846,3.5527777777777776
-1.1146292348787281,3.5555555555555554
-1.1409792347701593,3.558333333333333
1.7438877048001138,3.561111111111111
1.4773975517141442,3.563888888888889
-1.1817757373176943,3.566666666666667
-1.2028511473357841,3.5694444444444446
-1.1574568788095458,3.5722222222222224
-1.1767782525391475,3.575
-1.1019537564827024,3.577777777777778
0.9569263632916376,3.5805555555555557
-1.2089297154886554,3.5833333333333335
-1.1802662473497887,3.5861111111111112
-1.1484887314901153,3.588888888888889
-1.2441462877512466,3.591666666666667
-1.2096004810880996,3.5944444444444446
1.3017669112355819,3.5972222222222223
-1.195562746209508,3.6
-1.17595652565311,3.602777777777778
-1.1453075373554684,3.6055555555555556
-1.1441547086763701,3.6083333333333334
-1.183673742370251,3.611111111111111
-1.1218168141929081,3.613888888888889
-1.1863552827786938,3.6166666666666667
-1.0302768988654332,3.6194444444444445
-1.0579440289312358,3.6222222222222222
-1.1648718268377225,3.625
-1.0504079526669183,3.6277777777777778
-1.0291268437031071,3.6305555555555555
-1.043277326459252,3.6333333333333333
-1.1500628009001674,3.636111111111111
-0.9526515244700953,3.638888888888889
-0.9764138755287317,3.6416666666666666
-0.9343456571654005,3.6444444444444444
-0.9411313589626382,3.647222222222222
-0.9468756316651833,3.65
-0.9437129658544015,3.6527777777777777
2.6336937746877496,3.6555555555555554
-0.9447297519592726,3.658333333333333
-0.8555949057782001,3.661111111111111
-0.8771526126291781,3.6638888888888888
1.2042205953054048,3.6666666666666665
-0.8764295351464988,3.6694444444444443
-0.8640435285256971,3.672222222222222
-0.8024140458038966,3.675
-0.7706369767192284,3.6777777777777776
-0.7052503288328382,3.6805555555555554
-0.7214175242555584,3.683333333333333
-0.7302298813766059,3.686111111111111
-0.6408011614591791,3.688888888888889
-0.6531573285509105,3.691666666666667
-0.6805081046755441,3.6944444444444446
-0.6463178899678711,3.6972222222222224
-0.5456325451905698,3.7
-0.47463290916046313,3.702777777777778
-0.48981759076189824,3.7055555555555557
-0.4617349671751666,3.7083333333333335
1.9602674278580967,3.7111111111111112
-0.39469323136613016,3.713888888888889
-0.3737158459229155,3.716666666666667
-0.3163255361910992,3.7194444444444446
-0.38085559267779834,3.7222222222222223
-0.4110178629552582,3.725
2.819212882817403,3.727777777777778
-0.32283063482597296,3.7305555555555556
-0.27250410571825073,3.7333333333333334
-0.23991994943576378,3.736111111111111
-0.23366227453077482,3.738888888888889
-0.15519605677724377,3.7416666666666667
-0.15873967736395395,3.7444444444444445
-0.09418828071626417,3.7472222222222222
-0.10581291381615675,3.75
-0.10124885552584487,3.7527777777777778
-0.04706444105816198,3.7555555555555555
-0.023655732514061945,3.7583333333333333
0.090301098219247,3.761111111111111
0.03684561563621173,3.763888888888889
0.028443028720127536,3.7666666666666666
0.14374938737640375,3.7694444444444444
0.10348685261179295,3.772222222222222
0.16580280235701583,3.775
0.21401143807376627,3.7777777777777777
0.16070854310699023,3.7805555555555554
0.23148765822904172,3.783333333333333
0.32218791440771694,3.786111111111111
0.30862115440198573,3.7888888888888888
0.3002326568897599,3.7916666666666665
0.3746628623580842,3.7944444444444443
0.3269564459401076,3.797222222222222
0.35998852156744887,3.8
0.39364570156490897,3.8027777777777776
0.41513110020968114,3.8055555555555554
0.5019331803426244,3.808333333333333
0.5382997310085132,3.811111111111111
0.5190681678584146,3.813888888888889
0.5128047109985616,3.816666666666667
0.6216611648596836,3.8194444444444446
2.795464823656734,3.8222222222222224
0.7040030932357882,3.825
0.7398916545021564,3.827777777777778
0.7121305517923268,3.8305555555555557
0.7011018929497334,3.8333333333333335
0.6882121671917356,3.8361111111111112
0.7703677104155736,3.838888888888889
0.7116128629095259,3.841666666666667
0.8568579485520005,3.8444444444444446
0.8102016797592928,3.8472222222222223
0.8549471534418833,3.85
0.9519031000328807,3.852777777777778
0.8146188716413159,3.8555555555555556
0.8761946783086418,3.8583333333333334
0.8156277953000661,3.861111111111111
0.8773945589858748,3.863888888888889
0.9288731103873776,3.8666666666666667
1.0047690433500327,3.8694444444444445
0.9443436816048503,3.8722222222222222
1.0302279255234077,3.875
0.9742329670748325,3.8777777777777778
1.0567250694285881,3.8805555555555555
1.0150747023635533,3.8833333333333333
0.9723553294999778,3.886111111111111
1.1289740243145383,3.888888888888889
1.1117412944127547,3.8916666666666666
1.0654120207865767,3.8944444444444444
4.23845159277251,3.897222222222222
1.085057422011809,3.9
1.1358869831307061,3.9027777777777777
1.157393876148403,3.9055555555555554
1.1890465472820373,3.908333333333333
1.0895694570756747,3.911111111111111
1.1921487557430324,3.9138888888888888
1.1581142195990515,3.9166666666666665
1.1149630052918365,3.9194444444444443
1.2698277391236459,3.922222222222222
1.0816603439762937,3.925
1.2783001285575744,3.9277777777777776
1.1730167949011499,3.9305555555555554
1.237487323328311,3.933333333333333
1.1915484918726722,3.936111111111111
1.1530734092386588,3.938888888888889
1.1366561688599828,3.941666666666667
1.2497651179086482,3.9444444444444446
3.4541925172706573,3.9472222222222224
1.179843359405948,3.95
1.2968127373016243,3.952777777777778
1.1810080489530512,3.9555555555555557
1.2488264923185306,3.9583333333333335
2.903898627021503,3.9611111111111112
1.205950801764674,3.963888888888889
1.2055509394673338,3.966666666666667
1.1817168499980157,3.9694444444444446
1.2380500462865862,3.9722222222222223
1.1404837678501047,3.975
1.1603600699887917,3.977777777777778
1.150764661338523,3.9805555555555556
1.1220652476667305,3.9833333333333334
1.1434419123217365,3.986111111111111
1.166594926914791,3.988888888888889
1.1094827164389545,3.9916666666666667
1.016738888558986,3.9944444444444445
1.1113427854662685,3.9972222222222222
1.1682956419350514,4.0
1.0250188685628574,4.002777777777778
1.086861446641144,4.0055555555555555
1.0335006846260775,4.008333333333334
1.010515759002107,4.011111111111111
1.0388684154425922,4.013888888888889
0.9999447172327667,4.016666666666667
0.994988274369728,4.019444444444445
1.0114868683783516,4.022222222222222
0.9386534744397517,4.025
0.9716749684485224,4.027777777777778
0.9836546122837259,4.030555555555556
0.9052346729982195,4.033333333333333
0.8659825333658524,4.036111111111111
0.7761821622050669,4.038888888888889
0.8396793163540474,4.041666666666667
0.818547214985508,4.044444444444444
0.7858484639271319,4.0472222222222225
0.767467211319399,4.05
0.7802741313592831,4.052777777777778
0.7501583769281045,4.055555555555555
0.7081691145571046,4.058333333333334
0.6860336857584214,4.061111111111111
0.7413751609975481,4.063888888888889
3.2170219634211463,4.066666666666666
0.6808821930086769,4.069444444444445
0.6471392625203827,4.072222222222222
0.5767846222013979,4.075
0.5512409080879938,4.0777777777777775
0.6513011090327789,4.080555555555556
1.7997922660067698,4.083333333333333
0.5430566908403722,4.086111111111111
0.4650496007222706,4.088888888888889
0.43425632008879944,4.091666666666667
0.4870859766075139,4.094444444444444
0.446442538363743,4.097222222222222
0.3471089669959674,4.1
0.2593064615617721,4.102777777777778
0.23712269832726957,4.105555555555555
0.32440921642753223,4.108333333333333
0.21701152294223108,4.111111111111111
0.18236356868825143,4.113888888888889
0.16925545556038907,4.116666666666666
0.07489100997449585,4.1194444444444445
0.24370054935417818,4.122222222222222
0.07260023564211357,4.125
0.03869811460191812,4.127777777777778
0.046252980763162484,4.1305555555555555
0.05082406518546925,4.133333333333334
0.04719344670102367,4.136111111111111
-0.025566870645680702,4.138888888888889
-0.04392181152165141,4.141666666666667
-0.11332115869744055,4.144444444444445
-0.13104095141763078,4.147222222222222
-0.13085981868182958,4.15
2.436616048686633,4.152777777777778
-0.21078847058330571,4.155555555555556
-0.2699874520110169,4.158333333333333
2.3560905996988635,4.161111111111111
-0.2538291471472857,4.163888888888889
-0.3951086515636437,4.166666666666667
-0.3023369464461202,4.169444444444444
-0.4015622009340077,4.1722222222222225
-0.44649582985472486,4.175
-0.4824779186249559,4.177777777777778
-0.4022047312159808,4.180555555555555
-0.48476510732334976,4.183333333333334
-0.5438270393531224,4.186111111111111
-0.5063078554422608,4.188888888888889
-0.512943995975357,4.191666666666666
-0.6356798183008961,4.194444444444445
-0.6193157024461425,4.197222222222222
-0.6453358738914085,4.2
-0.6671298591016728,4.2027777777777775
-0.668838845527497,4.205555555555556
-0.6854632838288195,4.208333333333333
-0.6732402518923662,4.211111111111111
-0.7492437215802219,4.213888888888889
-0.7935566000604446,4.216666666666667
-0.7903063302726581,4.219444444444444
-0.7898822248652076,4.222222222222222
-0.859476717537042,4.225
1.255586367705774,4.227777777777778
-0.8582959199861919,4.230555555555555
-0.893487794584402,4.233333333333333
-0.9300392100034057,4.236111111111111
-0.84743015455164,4.238888888888889
-0.9746537940530368,4.241666666666666
-0.8670038485439415,4.2444444444444445
-0.9666694124707897,4.247222222222222
-1.0344766643610994,4.25
-0.9887260100566999,4.252777777777778
-0.9658140359282028,4.2555555555555555
-1.0229192186050509,4.258333333333334
-0.9547525310164218,4.261111111111111
-1.0046504174600248,4.263888888888889
-1.0474866622905645,4.266666666666667
-1.024884973366046,4.269444444444445
-1.130890547968925,4.272222222222222
-1.1697621639271247,4.275
-1.119550328525524,4.277777777777778
-1.1215988444307088,4.280555555555556
-1.0869820416130642,4.283333333333333
-1.1950971158482309,4.286111111111111
2.058006365644028,4.288888888888889
-1.1361325219362226,4.291666666666667
-1.2386574988094718,4.294444444444444
-1.1971322839831118,4.2972222222222225
-1.1209013544744222,4.3
-1.204884455451187,4.302777777777778
-1.1401339295343238,4.305555555555555
-1.2113141925859403,4.308333333333334
-1.297167983612551,4.311111111111111
-1.2108322755809051,4.313888888888889
-1.2119599173568036,4.316666666666666
-1.1669329974632239,4.319444444444445
-1.1935159885247624,4.322222222222222
-1.2057718862322484,4.325
-1.1849630130875632,4.3277777777777775
2.1549348502296413,4.330555555555556
-1.3035530215758497,4.333333333333333
-1.1613802546001863,4.336111111111111
-1.2618525241675467,4.338888888888889
-1.2953844254190139,4.341666666666667
-1.155880027520925,4.344444444444444
-1.2122475088862912,4.347222222222222
-1.1600152755886075,4.35
-1.1755758803474445,4.352777777777778
-1.1258967008758247,4.355555555555555
-1.1722385355585938,4.358333333333333
-1.1989835994765419,4.361111111111111
1.0931363232719822,4.363888888888889
-1.1135001692068143,4.366666666666666
-1.106831174697179,4.3694444444444445
-1.1178309430739306,4.372222222222222
-1.0849611869468916,4.375
1.1071850740380296,4.377777777777778
-1.0169424643699014,4.3805555555555555
-0.9840652121740641,4.383333333333334
1.4654875854726843,4.386111111111111
-0.9353696369384641,4.388888888888889
-1.0584719302317342,4.391666666666667
-1.027343592774024,4.394444444444445
-0.9517139854941312,4.397222222222222
-0.9458053591851195,4.4
-0.877111736827207,4.402777777777778
-0.9209541316389666,4.405555555555556
-0.9142100441369407,4.408333333333333
-0.9300069786291534,4.411111111111111
-0.8802126490655618,4.413888888888889
-0.8757951108964962,4.416666666666667
-0.836200887133082,4.419444444444444
-0.7931451567551048,4.4222222222222225
-0.8197508713145802,4.425
-0.7418238487838908,4.427777777777778
-0.6618966524925319,4.430555555555555
-0.7880595294665935,4.433333333333334
-0.696679274921476,4.436111111111111
-0.6685890583182557,4.438888888888889
-0.6523351511956935,4.441666666666666
-0.6777560500006852,4.444444444444445
-0.5989922189017671,4.447222222222222
-0.5779916219248736,4.45
-0.5570785103450654,4.4527777777777775
-0.6008646854068738,4.455555555555556
-0.5312599039580059,4.458333333333333
-0.5452408072208137,4.461111111111111
-0.5308260029027065,4.463888888888889
-0.4061566706265379,4.466666666666667
-0.5494467106768894,4.469444444444444
-0.4520878150540341,4.472222222222222
-0.26177052522847094,4.475
-0.28230158118353965,4.477777777777778
-0.2788007769183708,4.480555555555555
-0.21472233847818958,4.483333333333333
-0.2001524550629885,4.486111111111111
-0.16541934449834808,4.488888888888889
-0.16384318833368974,4.491666666666666
-0.13258241651656216,4.4944444444444445
-0.20346908535182823,4.497222222222222
-0.11152285244330044,4.5
-0.11774235039732527,4.502777777777778
-0.1281783435783854,4.5055555555555555
-0.018802926512143214,4.508333333333334
2.2098552670275375,4.511111111111111
-0.017488405105089633,4.513888888888889
0.04211117397170935,4.516666666666667
0.14047334873262232,4.519444444444445
0.1658324442416788,4.522222222222222
0.11523610632415873,4.525
0.1960644684351277,4.527777777777778
0.17344675303754037,4.530555555555556
0.16400321987665462,4.533333333333333
0.20379268289458335,4.536111111111111
0.23724624699138985,4.538888888888889
0.2631845580235038,4.541666666666667
0.38572195759884165,4.544444444444444
0.3564403462522192,4.5472222222222225
0.4061899118534586,4.55
0.5159476135157763,4.552777777777778
0.367008350904641,4.555555555555555
0.45210603336308663,4.558333333333334
0.4407779198279581,4.561111111111111
0.6010493010599218,4.563888888888889
0.5343021920390562,4.566666666666666
0.4732407736294909,4.569444444444445
0.5817914552795237,4.572222222222222
0.6961583877236726,4.575
0.6118591746195662,4.5777777777777775
0.6325487340638949,4.580555555555556
0.5489563548970688,4.583333333333333
0.6953680614694189,4.586111111111111
0.677404910469843,4.588888888888889
0.8202954875592489,4.591666666666667
0.7317570314968329,4.594444444444444
0.7797754659383802,4.597222222222222
0.8447435901898416,4.6
0.7704400975403926,4.602777777777778
0.833132124286249,4.605555555555555
0.8509915532663641,4.608333333333333
0.8738170431685855,4.611111111111111
0.8806000280491028,4.613888888888889
0.9038191439487469,4.616666666666666
0.9811005381296758,4.6194444444444445
0.8516042490039486,4.622222222222222
0.9095982932954713,4.625
0.9229307341969654,4.627777777777778
1.0388744290282375,4.6305555555555555
1.0778285138872323,4.633333333333334
1.014794088363856,4.636111111111111
1.079923373443715,4.638888888888889
1.048659517251145,4.641666666666667
1.1000417650570042,4.644444444444445
0.9906945192372139,4.647222222222222
1.1391096803648475,4.65
1.0735233984309165,4.652777777777778
1.0622401126358942,4.655555555555556
1.080183645538019,4.658333333333333
1.10463746052322,4.661111111111111
1.167047557871583,4.663888888888889
1.1676962603399377,4.666666666666667
1.1091138969569778,4.669444444444444
1.0483789273737782,4.6722222222222225
1.2031047735334761,4.675
1.209384563301453,4.677777777777778
1.204452867821846,4.680555555555555
1.2032599805206632,4.683333333333334
1.1834233494558963,4.686111111111111
1.1572513396685666,4.688888888888889
1.1753891161233252,4.691666666666666
1.1823979251573433,4.694444444444445
1.186560378535472,4.697222222222222
1.1340446728689522,4.7
1.228453258057031,4.7027777777777775
4.396910318101087,4.705555555555556
1.2096442857569765,4.708333333333333
1.1827563794602998,4.711111111111111
3.66797882495507,4.713888888888889
1.1971383482621802,4.716666666666667
1.219548356372398,4.719444444444444
1.250731122091157,4.722222222222222
1.225916297501942,4.725
1.201427333532805,4.727777777777778
1.085868830082925,4.730555555555555
1.1049686621593986,4.733333333333333
1.043592776466702,4.736111111111111
4.338687500682847,4.738888888888889
1.1294568227471453,4.741666666666666
1.1560478622299146,4.7444444444444445
0.9679798982166197,4.747222222222222
1.1394000934120498,4.75
1.004715103909035,4.752777777777778
1.0556108440524354,4.7555555555555555
1.0251393984403905,4.758333333333334
1.0001483032292469,4.761111111111111
0.9956100863074221,4.763888888888889
1.0191109199826422,4.766666666666667
1.0590077026830835,4.769444444444445
1.0628432650708113,4.772222222222222
0.8503615737654107,4.775
0.897228872838285,4.777777777777778
0.8694234585047926,4.780555555555556
0.9917492745396543,4.783333333333333
0.8936444767958164,4.786111111111111
0.8874402260192643,4.788888888888889
0.8467557311047706,4.791666666666667
0.889637547938019,4.794444444444444
0.8271236350457672,4.7972222222222225
0.8100513504445725,4.8
0.7907868334288892,4.802777777777778
0.7351212270501792,4.805555555555555
0.7444412105476365,4.808333333333334
0.7352650954678195,4.811111111111111
0.7298839926390179,4.813888888888889
0.7423697592430835,4.816666666666666
0.6323154649641755,4.819444444444445
0.6525554827656639,4.822222222222222
0.6057251624672704,4.825
0.6107887838006619,4.8277777777777775
0.6133274468939496,4.830555555555556
0.5319466643684378,4.833333333333333
0.4798057976255692,4.836111111111111
0.46927768701418515,4.838888888888889
0.38174661688767725,4.841666666666667
0.4415551904866034,4.844444444444444
0.500156173402022,4.847222222222222
0.36064547484686843,4.85
0.22644646919838735,4.852777777777778
0.3176741001232867,4.855555555555555
0.2909927291730011,4.858333333333333
0.23923786313104944,4.861111111111111
0.17427834425237057,4.863888888888889
0.26448595725461244,4.866666666666666
0.08476902510865754,4.8694444444444445
0.19091853337306905,4.872222222222222
0.16367666158952937,4.875
0.06654791758603905,4.877777777777778
0.08264280137604406,4.8805555555555555
0.012060772500663772,4.883333333333334
0.028621400292355957,4.886111111111111
-0.025151709485648252,4.888888888888889
-0.016369140613316298,4.891666666666667
-0.10211354083394159,4.894444444444445
-0.053627838699381036,4.897222222222222
-0.1103033967042394,4.9
-0.22193261660462538,4.902777777777778
1.9670223150676835,4.905555555555556
-0.17369044152078422,4.908333333333333
-0.2776610712382173,4.911111111111111
-0.2314949514776249,4.913888888888889
-0.3170061722860238,4.916666666666667
-0.34946964608362435,4.919444444444444
-0.40032684763107174,4.9222222222222225
-0.27730793049863117,4.925
-0.4044926480569835,4.927777777777778
-0.4628454716456585,4.930555555555555
-0.3481687493481921,4.933333333333334
-0.4478776939327786,4.936111111111111
-0.45637763050153524,4.938888888888889
2.802886224989019,4.941666666666666
-0.5102077172037389,4.944444444444445
-0.578873578664781,4.947222222222222
-0.39742354345278896,4.95
-0.5693795879604638,4.9527777777777775
-0.6059855723567821,4.955555555555556
-0.69256340980012,4.958333333333333
-0.7060616876744981,4.961111111111111
-0.7341433890938923,4.963888888888889
-0.6682455287165466,4.966666666666667
-0.7397514350043413,4.969444444444444
-0.8520650394121511,4.972222222222222
-0.8164631523803154,4.975
-0.9118141597707797,4.977777777777778
-0.8487692519579068,4.980555555555555
-0.8640784968562351,4.983333333333333
-0.8602474168993797,4.986111111111111
-0.9051623298722892,4.988888888888889
-0.9194742057993682,4.991666666666666
1.3122728509755723,4.9944444444444445
-0.9312748605418946,4.997222222222222
-0.9190288099167957,5.0
-0.9674333076520637,5.002777777777778
-1.0136626148048158,5.0055555555555555
-1.0450714976389825,5.008333333333334
-1.1231035608773832,5.011111111111111
-0.97236218942891,5.013888888888889
-1.060089370784685,5.016666666666667
-1.0173948354223574,5.019444444444445
-1.0583107709240822,5.022222222222222
-1.119074829972992,5.025
2.097605257059864,5.027777777777778
-1.0445964479465426,5.030555555555556
0.8976907729252932,5.033333333333333
-1.0580275783554418,5.036111111111111
-1.088792239919059,5.038888888888889
-1.1225351988574428,5.041666666666667
-1.1709164631189328,5.044444444444444
-1.1414171728614262,5.0472222222222225
2.2251113072750064,5.05
-1.1963649854567389,5.052777777777778
-1.1273454456492285,5.055555555555555
-1.2008399197753428,5.058333333333334
-1.1441545568655818,5.061111111111111
-1.2332810400083927,5.063888888888889
-1.1539187216449682,5.066666666666666
-1.227494745039686,5.069444444444445
-1.303224062316725,5.072222222222222
-1.2371194697856343,5.075
-1.1865836033838584,5.0777777777777775
-1.2414638215193483,5.080555555555556
-1.176669705915579,5.083333333333333
-1.2067842871469827,5.086111111111111
-1.1587738245461892,5.088888888888889
1.890300485821301,5.091666666666667
-1.2158704724292917,5.094444444444444
-1.1495411931641062,5.097222222222222
-1.1812687949815703,5.1
-1.0924752527541743,5.102777777777778
-1.2087535140590941,5.105555555555555
-1.2292510581141676,5.108333333333333
-1.1058832741274582,5.111111111111111
-1.1613699242867062,5.113888888888889
-1.1047730323048994,5.116666666666666
-1.007986716579207,5.1194444444444445
-1.1743378702623093,5.122222222222222
-1.0750467777539616,5.125
-1.075355784884165,5.127777777777778
-1.0487241666127665,5.1305555555555555
-0.9789442229082237,5.133333333333334
-1.0275753040468016,5.136111111111111
1.0987730447395907,5.138888888888889
-1.0597643798029093,5.141666666666667
-0.9954082665874211,5.144444444444445
-1.0308511488519978,5.147222222222222
-0.989385188953317,5.15
-0.9871786079158665,5.152777777777778
-0.9064327906476908,5.155555555555556
-0.9334085316754707,5.158333333333333
-0.946817257442669,5.161111111111111
-0.882515592389311,5.163888888888889
-0.8930247285033975,5.166666666666667
-0.9902187630023886,5.169444444444444
-0.8278207046968992,5.1722222222222225
-0.7582837974602971,5.175
-0.8413657308170632,5.177777777777778
-0.8321989252384461,5.180555555555555
-0.7561193030720449,5.183333333333334
-0.7571703736690887,5.186111111111111
-0.7161301427879083,5.188888888888889
-0.68443582087641,5.191666666666666
-0.7147619429971657,5.194444444444445
-0.6889343654895239,5.197222222222222
-0.5510359785894879,5.2
-0.6249069401123314,5.2027777777777775
-0.594072275190815,5.205555555555556
-0.533823556115085,5.208333333333333
-0.5139476611821835,5.211111111111111
-0.39252994463374036,5.213888888888889
-0.4431492061860043,5.216666666666667
-0.3942571014877097,5.219444444444444
-0.358816083443732,5.222222222222222
-0.34192608163870736,5.225
-0.2944522719694659,5.227777777777778
-0.30817465821028783,5.230555555555555
2.584562021424741,5.233333333333333
-0.2661473715339116,5.236111111111111
-0.20885192232156702,5.238888888888889
-0.25991081118665493,5.241666666666666
-0.14051417107832945,5.2444444444444445
-0.18754036275220928,5.247222222222222
-0.04603796660790341,5.25
-0.1394879968998644,5.252777777777778
-0.12483751533496876,5.2555555555555555
0.007786353297520192,5.258333333333334
-0.030248342238511215,5.261111111111111
-0.023480305918702583,5.263888888888889
0.04700429626504189,5.266666666666667
0.07118874186494618,5.269444444444445
0.06452309036785038,5.272222222222222
0.17571154671001452,5.275
0.20222860903185053,5.277777777777778
0.15008724809041274,5.280555555555556
0.15752140342899343,5.283333333333333
0.23872668376772938,5.286111111111111
0.3297029926705448,5.288888888888889
0.31840992807185775,5.291666666666667
0.3185762602159177,5.294444444444444
0.37587038658216826,5.2972222222222225
0.3346451596192826,5.3
0.3715728006252856,5.302777777777778
0.44914423925690655,5.305555555555555
0.556740750360268,5.308333333333334
0.38355664104413306,5.311111111111111
0.5425161642189252,5.313888888888889
0.5333514350391263,5.316666666666666
0.6475165942412066,5.319444444444445
3.742773478056241,5.322222222222222
0.5967883336780596,5.325
0.594045449504206,5.3277777777777775
3.9832996272152514,5.330555555555556
0.6776279384907452,5.333333333333333
0.6190511024307422,5.336111111111111
0.7104703369170018,5.338888888888889
0.702455505536724,5.341666666666667
0.6761384869472935,5.344444444444444
0.7101452861248629,5.347222222222222
0.8246868780389084,5.35
0.8669935695362605,5.352777777777778
0.8859633325786113,5.355555555555555
0.9338473779030143,5.358333333333333
0.8521331144623733,5.361111111111111
0.8560031386431228,5.363888888888889
0.8849870427647566,5.366666666666666
0.9874003612413693,5.3694444444444445
1.0013806173066766,5.372222222222222
0.95430001909904,5.375
0.9870690126276991,5.377777777777778
0.9902833840019551,5.3805555555555555
1.0359531556888302,5.383333333333334
1.0180423015566429,5.386111111111111
1.0273954052150103,5.388888888888889
1.1099268059940324,5.391666666666667
1.0475770554504718,5.394444444444445
1.1310710416225491,5.397222222222222
1.0984530448709287,5.4
1.1422521737830025,5.402777777777778
1.1517332201615185,5.405555555555556
1.2010178406215595,5.408333333333333
1.1715184531502354,5.411111111111111
1.1124016296984456,5.413888888888889
1.177634406189254,5.416666666666667
1.1492924891273035,5.419444444444444
1.1466829781141334,5.4222222222222225
1.1789574225092219,5.425
1.178359704728412,5.427777777777778
3.51873062867302,5.430555555555555
1.2167770777927258,5.433333333333334
1.0914897060930082,5.436111111111111
1.1902979574798147,5.438888888888889
1.1526015801369582,5.441666666666666
1.1948220509460514,5.444444444444445
1.2035200383235485,5.447222222222222
1.2416654191251808,5.45
1.1274919935296102,5.4527777777777775
1.2006389747598967,5.455555555555556
1.2032044815653642,5.458333333333333
1.0976141524800394,5.461111111111111
1.152825542988651,5.463888888888889
1.1911394760466127,5.466666666666667
1.2623742684474424,5.469444444444444
1.1751146361302387,5.472222222222222
1.1470421564529485,5.475
1.1596337796464875,5.477777777777778
1.1558014669765302,5.480555555555555
2.9079629887963687,5.483333333333333
1.172019635481618,5.486111111111111
1.0776654137376331,5.488888888888889
1.1168285373410178,5.491666666666666
1.0704682119470552,5.4944444444444445
1.088374400492328,5.497222222222222
1.1562652288324187,5.5
1.0951862874377332,5.502777777777778
1.055914565498287,5.5055555555555555
1.0055037419252875,5.508333333333334
1.0069764495198137,5.511111111111111
1.0351979471716697,5.513888888888889
0.9995177738567934,5.516666666666667
1.0498869471903394,5.519444444444445
0.864042110027017,5.522222222222222
4.193784972191272,5.525
0.964398483753809,5.527777777777778
0.9942883733814867,5.530555555555556
0.9420173218208954,5.533333333333333
0.9307955640826826,5.536111111111111
0.8657765795467338,5.538888888888889
0.8582065536929535,5.541666666666667
4.1446291567043945,5.544444444444444
0.8442128463414076,5.5472222222222225
0.7925853286014604,5.55
0.812200687991259,5.552777777777778
0.7659363888729271,5.555555555555555
0.8015373786077286,5.558333333333334
0.6227222166259458,5.561111111111111
0.7198751995607238,5.563888888888889
0.6499141616871051,5.566666666666666
0.6449023356957495,5.569444444444445
0.5580837698514152,5.572222222222222
0.6940140280748375,5.575
0.6285760230627275,5.5777777777777775
0.6654822024693299,5.580555555555556
0.4741966788505351,5.583333333333333
0.47294976251812454,5.586111111111111
0.40703067845540597,5.588888888888889
0.39159236469399217,5.591666666666667
0.30916109753446375,5.594444444444444
0.43794110925756635,5.597222222222222
0.4051722327050498,5.6
0.33152179993129055,5.602777777777778
0.3401189664545523,5.605555555555555
0.3391859373088541,5.608333333333333
0.2848329823285729,5.611111111111111
0.25999267471910575,5.613888888888889
0.0853797237376695,5.616666666666666
0.19742905844278227,5.6194444444444445
3.4954172100863743,5.622222222222222
0.16752568969480855,5.625
0.09554912552021312,5.627777777777778
0.11909147781104111,5.6305555555555555
0.09628766524432261,5.633333333333334
0.018949577336114104,5.636111111111111
-0.12287747965947395,5.638888888888889
-0.06271945053713063,5.641666666666667
-0.01028706020724584,5.644444444444445
-0.038382127899527066,5.647222222222222
-0.15343904994194885,5.65
-0.1912110072402143,5.652777777777778
-0.22388255291732684,5.655555555555556
1.6309244383935209,5.658333333333333
-0.2642121035281821,5.661111111111111
-0.2566846648965203,5.663888888888889
-0.30099208190013543,5.666666666666667
-0.28878398200250843,5.669444444444444
-0.29648754780742836,5.6722222222222225
-0.3841075088775698,5.675
-0.5588733099402382,5.677777777777778
-0.40983897733441055,5.680555555555555
-0.4805104825596103,5.683333333333334
-0.4649953086474661,5.686111111111111
-0.49549715174554254,5.688888888888889
-0.5804598378138197,5.691666666666666
-0.4767731172648909,5.694444444444445
-0.5741976805725785,5.697222222222222
-0.5798514905158632,5.7
-0.6043477264573761,5.7027777777777775
-0.6523350851453502,5.705555555555556
-0.6083403161604121,5.708333333333333
-0.7079792374585302,5.711111111111111
-0.6915805442562845,5.713888888888889
-0.7673466708093083,5.716666666666667
2.0110036711227846,5.719444444444444
-0.7058233653277205,5.722222222222222
-0.8205035345875238,5.725
-0.8169748243193545,5.727777777777778
-0.8717182862916374,5.730555555555555
-0.8908409238589736,5.733333333333333
-0.8941162531032775,5.736111111111111
-0.9823884624080431,5.738888888888889
-0.9667824730158727,5.741666666666666
-0.9631431087266755,5.7444444444444445
-0.9869198756370988,5.747222222222222
-1.0433250930994795,5.75
-0.932703412635381,5.752777777777778
-0.9449951485025818,5.7555555555555555
-1.0541976278525655,5.758333333333334
-1.0143314812813962,5.761111111111111
-1.1086383897503005,5.763888888888889
-1.0740120625878427,5.766666666666667
-1.0645866033125795,5.769444444444445
-1.0399609388573703,5.772222222222222
-1.165577819558988,5.775
-1.0203828282933087,5.777777777777778
-1.10835644688385,5.780555555555556
-1.1697751021316591,5.783333333333333
-1.1569396817656457,5.786111111111111
-1.1211775463969709,5.788888888888889
-1.1099623059411987,5.791666666666667
-1.211929901022594,5.794444444444444
-1.207229941803287,5.7972222222222225
-1.1816940803412137,5.8
-1.2038479266634265,5.802777777777778
-1.112219930077791,5.805555555555555
0.9857165080676202,5.808333333333334
-1.278161199068639,5.811111111111111
-1.2254076256224025,5.813888888888889
-1.1914873290480925,5.816666666666666
0.3962710361946107,5.819444444444445
-1.211695538001087,5.822222222222222
-1.250401534010062,5.825
-1.2717592116292493,5.8277777777777775
0.8432271208147213,5.830555555555556
-1.3148519356074464,5.833333333333333
-1.251441011138721,5.836111111111111
-1.2456905545130235,5.838888888888889
-1.167723236705676,5.841666666666667
-1.2088758120099488,5.844444444444444
-1.1240908932729499,5.847222222222222
-1.1307892768670469,5.85
-1.2683824138989972,5.852777777777778
-1.1676240712616488,5.855555555555555
-1.1457278326301459,5.858333333333333
-1.185527736095245,5.861111111111111
-1.0659227132297049,5.863888888888889
1.3886695740359667,5.866666666666666
-1.1514716882304865,5.8694444444444445
-1.0636730677449076,5.872222222222222
-1.1679025896101303,5.875
-0.9985797202101903,5.877777777777778
-1.0916547485570416,5.8805555555555555
-1.053119355667487,5.883333333333334
-1.0762181218805913,5.886111111111111
1.4196514884663272,5.888888888888889
-1.0296982003812445,5.891666666666667
-1.0192509051890888,5.894444444444445
1.911751743565808,5.897222222222222
-0.9950519420665769,5.9
-1.019066863092467,5.902777777777778
-0.9718735245493828,5.905555555555556
-1.0282535098178216,5.908333333333333
-0.9385795465616076,5.911111111111111
-0.8044004707290768,5.913888888888889
-0.8011717101108595,5.916666666666667
-0.9622020625351045,5.919444444444444
-0.8626675731714202,5.9222222222222225
-0.8221865137815587,5.925
-0.8748088567295841,5.927777777777778
-0.7450668244264668,5.930555555555555
-0.7648796374757908,5.933333333333334
-0.759964282230136,5.936111111111111
-0.6506914192633129,5.938888888888889
-0.6060353417466935,5.941666666666666
-0.5638319405342195,5.944444444444445
-0.6831305795875542,5.947222222222222
-0.6238183026348748,5.95
-0.5922492397753101,5.9527777777777775
-0.6066981949899802,5.955555555555556
-0.6574450404097397,5.958333333333333
-0.5353495904426607,5.961111111111111
-0.5063233056463341,5.963888888888889
-0.5682723769925032,5.966666666666667
-0.37476734181077886,5.969444444444444
2.529615852663204,5.972222222222222
-0.33481198112935134,5.975
-0.3273806191790474,5.977777777777778
-0.3287609831121587,5.980555555555555
-0.2959843249905664,5.983333333333333
-0.28099777200021486,5.986111111111111
-0.19320439009561724,5.988888888888889
-0.15066398963621583,5.991666666666666
-0.18163237972543866,5.9944444444444445
-0.1079305366823461,5.997222222222222
-0.1604752747879974,6.0
-0.09789730791286412,6.002777777777778
-0.15127587629573913,6.0055555555555555
-0.08238445522025908,6.008333333333334
-0.0028396645669792123,6.011111111111111
2.451428166151552,6.013888888888889
0.04710556679831965,6.016666666666667
0.11794455519524175,6.019444444444445
0.0016710469813501494,6.022222222222222
0.12289657729196433,6.025
0.10728350769438164,6.027777777777778
0.10792650960548775,6.030555555555556
0.20238850621452442,6.033333333333333
0.25369818148201234,6.036111111111111
0.2845120072788395,6.038888888888889
0.2669489181532206,6.041666666666667
0.25367666091993196,6.044444444444444
0.32365926745893314,6.0472222222222225
0.36866115407956684,6.05
0.4379236997176982,6.052777777777778
0.43602832676564696,6.055555555555555
0.4047813836511312,6.058333333333334
0.506221730907369,6.061111111111111
0.4027944815166171,6.063888888888889
0.484969579410563,6.066666666666666
0.45592790109258285,6.069444444444445
0.6119067128608038,6.072222222222222
0.5950672944824553,6.075
0.5912747596507945,6.0777777777777775
0.5921257111715594,6.080555555555556
0.5921947996470874,6.083333333333333
0.8081275627027167,6.086111111111111
0.6825144151483981,6.088888888888889
0.7564597660177295,6.091666666666667
0.7067182309339606,6.094444444444444
0.7001806345065069,6.097222222222222
0.81905257981152,6.1
0.7680375193763618,6.102777777777778
0.7701493412549549,6.105555555555555
0.8443689787213264,6.108333333333333
0.8151466273460417,6.111111111111111
0.8876285046396737,6.113888888888889
0.868508281777767,6.116666666666666
1.045564999507099,6.1194444444444445
0.9991377638893258,6.122222222222222
0.9164178954231694,6.125
0.9328266069732509,6.127777777777778
1.042277560281427,6.1305555555555555
0.9941496729753598,6.133333333333334
0.8798145066455735,6.136111111111111
0.9457975434400886,6.138888888888889
1.0795294555317618,6.141666666666667
1.0625200316538574,6.144444444444445
1.056659536185487,6.147222222222222
1.2269841639342092,6.15
1.0985572180382903,6.152777777777778
1.0608309300061967,6.155555555555556
1.1876078123798604,6.158333333333333
1.0982194060824542,6.161111111111111
1.163707981220154,6.163888888888889
1.2013709594060533,6.166666666666667
1.2258052583254773,6.169444444444444
1.1301421150180355,6.1722222222222225
3.3922561401055047,6.175
1.2197123438818311,6.177777777777778
1.1161019354764425,6.180555555555555
1.105488913238404,6.183333333333334
1.1391559456322646,6.186111111111111
1.1625153069726772,6.188888888888889
1.1806159009178254,6.191666666666666
1.2115081092574898,6.194444444444445
1.2284354451850636,6.197222222222222
1.1572160808088352,6.2
1.2276181595611986,6.2027777777777775
1.2813574712716163,6.205555555555556
1.2364323602391423,6.208333333333333
1.1816411237159967,6.211111111111111
1.1730493101007473,6.213888888888889
1.1792667518985764,6.216666666666667
1.2063973471073393,6.219444444444444
1.2034532155655433,6.222222222222222
1.1993606350751005,6.225
1.121017548930808,6.227777777777778
1.1724156320019588,6.230555555555555
1.1280083918056123,6.233333333333333
1.2231721500976551,6.236111111111111
1.25687692528059,6.238888888888889
1.089013073770003,6.241666666666666
1.0881915448477728,6.2444444444444445
1.1836779736148246,6.247222222222222
1.2059052344772787,6.25
1.1325918786628675,6.252777777777778
1.0682216782278982,6.2555555555555555
1.1049242388372382,6.258333333333334
1.0545287389363398,6.261111111111111
0.985274308850715,6.263888888888889
1.0640069771325806,6.266666666666667
1.0220944022652216,6.269444444444445
1.0351004090105833,6.272222222222222
0.9361139173339132,6.275
0.9393886167680927,6.277777777777778
0.9729872912533255,6.280555555555556
1.0035123492410873,6.283333333333333
5.342588637774367,6.286111111111111
0.8654091138215666,6.288888888888889
0.9243137373129197,6.291666666666667
0.9126089127976624,6.294444444444444
0.8292238541230519,6.2972222222222225
0.8209348667459294,6.3
0.7766856077997002,6.302777777777778
0.8558436414221089,6.305555555555555
0.7137752266887202,6.308333333333334
0.7353117043936672,6.311111111111111
0.7336715744215673,6.313888888888889
0.6215883442242718,6.316666666666666
0.703104293995349,6.319444444444445
0.697941331994478,6.322222222222222
0.5422740201015517,6.325
0.5971738081866632,6.3277777777777775
0.4862768153039371,6.330555555555556
0.5765152934469499,6.333333333333333
0.5496610710273819,6.336111111111111
0.5134751258557052,6.338888888888889
0.5057049586288845,6.341666666666667
0.4590918128168522,6.344444444444444
0.4610645336350409,6.347222222222222
0.3991747398862593,6.35
0.3634980204854175,6.352777777777778
0.3767292511499402,6.355555555555555
0.26802466534690594,6.358333333333333
0.26477015855642777,6.361111111111111
0.3380806636457516,6.363888888888889
0.2290340495970863,6.366666666666666
0.18694013213550892,6.3694444444444445
0.2420176113762321,6.372222222222222
0.1954501443053654,6.375
0.22538397101419583,6.377777777777778
0.17325943490555368,6.3805555555555555
0.05280669982938509,6.383333333333334
0.06714713981275058,6.386111111111111
0.03212485533102634,6.388888888888889
-0.020358571908589508,6.391666666666667
0.0027490559557739047,6.394444444444445
-0.10076955929554099,6.397222222222222
-0.11657046948255669,6.4
-0.06267926389486395,6.402777777777778
-0.21249615870392002,6.405555555555556
-0.1210214549070179,6.408333333333333
-0.27071672134630875,6.411111111111111
-0.22116798940809604,6.413888888888889
-0.31845797943811177,6.416666666666667
-0.2530504457997443,6.419444444444444
-0.3599363187697278,6.4222222222222225
-0.2449172872045594,6.425
-0.25692536667192395,6.427777777777778
-0.38425269139186113,6.430555555555555
-0.45745087673239626,6.433333333333334
-0.4755740815893824,6.436111111111111
-0.3800016854608969,6.438888888888889
-0.4351310487921466,6.441666666666666
-0.5142292030045974,6.444444444444445
-0.5561482231563051,6.447222222222222
-0.5962300928717424,6.45
-0.6279779214712695,6.4527777777777775
-0.6711340361750138,6.455555555555556
-0.6890078065339998,6.458333333333333
-0.5861585944707123,6.461111111111111
-0.7252530660654585,6.463888888888889
-0.7726004917423839,6.466666666666667
-0.7119689194653084,6.469444444444444
-0.7986976764208638,6.472222222222222
-0.7813673718290322,6.475
-0.7375875169255065,6.477777777777778
-0.8351187120355952,6.480555555555555
-0.7627073914150388,6.483333333333333
-0.8684443136559173,6.486111111111111
1.3254878663813654,6.488888888888889
-0.8809952592061745,6.491666666666666
-0.9459926878865625,6.4944444444444445
-0.9486519664074058,6.497222222222222
-0.8842340189527327,6.5
-0.9813146496694192,6.502777777777778
-1.0485717011537259,6.5055555555555555
-0.9225108661598319,6.508333333333334
-0.9392270094750872,6.511111111111111
-1.0339368197137977,6.513888888888889
-1.0480449094974786,6.516666666666667
-1.0541152897035133,6.519444444444445
2.0520760923242882,6.522222222222222
-1.1039387156241118,6.525
-1.1697944169443675,6.527777777777778
-1.1930510596736759,6.530555555555556
-1.1576630581032952,6.533333333333333
-1.192491498187286,6.536111111111111
-1.117022051916884,6.538888888888889
-1.1379985073414456,6.541666666666667
-1.1338064444820934,6.544444444444444
-1.1483593616675287,6.5472222222222225
-1.2053212911257676,6.55
-1.260796242962144,6.552777777777778
-1.1521943955227336,6.555555555555555
-1.235721641183899,6.558333333333334
-1.1435346208362451,6.561111111111111
-1.1527010788353422,6.563888888888889
-1.202340464521129,6.566666666666666
0.8574708800560433,6.569444444444445
-1.256504714569551,6.572222222222222
-1.2253303329318956,6.575
-1.2060138016604656,6.5777777777777775
-1.1388637961301011,6.580555555555556
-1.1332118783822407,6.583333333333333
-1.2076681920444294,6.586111111111111
-1.1403636123260963,6.588888888888889
-1.2123374882951774,6.591666666666667
-1.125757270128957,6.594444444444444
-1.171095309034118,6.597222222222222
-1.176708693179831,6.6
-1.1441059127887752,6.602777777777778
-1.1534732109489214,6.605555555555555
-1.1469230176918523,6.608333333333333
-1.1552050558416807,6.611111111111111
-1.1967710218823149,6.613888888888889
-1.092953575212638,6.616666666666666
-1.181806835746376,6.6194444444444445
-1.040670820110626,6.622222222222222
-1.0519071191127032,6.625
-1.0795937144861807,6.627777777777778
-1.0832141742655401,6.6305555555555555
-1.0394456610809149,6.633333333333334
-1.079206658026718,6.636111111111111
-1.0685560197899153,6.638888888888889
-1.1274005315427293,6.641666666666667
1.6099003715740448,6.644444444444445
-1.0686262228155905,6.647222222222222
-0.9615112135857405,6.65
-0.9122036294732632,6.652777777777778
-0.9329958740052359,6.655555555555556
-0.894671520021146,6.658333333333333
-0.8698469501017225,6.661111111111111
1.2814185519099208,6.663888888888889
-0.9529237337809733,6.666666666666667
-0.9116974050015155,6.669444444444444
-0.8246734334405977,6.6722222222222225
1.7009642518716883,6.675
-0.8254634745397575,6.677777777777778
-0.8223827398956148,6.680555555555555
-0.7589221447810971,6.683333333333334
-0.761804350163695,6.686111111111111
-0.7282440562996115,6.688888888888889
-0.662066823279537,6.691666666666666
-0.649813006917711,6.694444444444445
-0.6881704383169971,6.697222222222222
-0.6198228366798639,6.7
-0.5634064782930476,6.7027777777777775
-0.6052557940099113,6.705555555555556
-0.6120267490363922,6.708333333333333
-0.6083617261596146,6.711111111111111
-0.49375595613506196,6.713888888888889
-0.48931983304086396,6.716666666666667
-0.397204430971874,6.719444444444444
-0.3814818255230674,6.722222222222222
-0.5144865733161397,6.725
-0.409203270466688,6.727777777777778
-0.3795294113672797,6.730555555555555
-0.285832582595589,6.733333333333333
-0.3559437115420739,6.736111111111111
-0.19043495792747495,6.738888888888889
-0.16503610166041047,6.741666666666666
-0.25267251477681285,6.7444444444444445
-0.24518597776547343,6.747222222222222
-0.12784196040377385,6.75
-0.18557709787940524,6.752777777777778
-0.09659069684121045,6.7555555555555555
0.0248780672020764,6.758333333333334
-0.04454774568786049,6.761111111111111
-0.036505049983250146,6.763888888888889
-0.014516286700574168,6.766666666666667
0.01545538323089374,6.769444444444445
1.9214798292975446,6.772222222222222
0.05652078419853461,6.775
0.06099312464849473,6.777777777777778
0.07435237396883282,6.780555555555556
0.12897716671335532,6.783333333333333
0.2074079611025735,6.786111111111111
0.22031001023881958,6.788888888888889
0.23584547464577688,6.791666666666667
0.24399715982664558,6.794444444444444
0.33337666775104613,6.7972222222222225
0.29858448245643543,6.8
0.4009904731833484,6.802777777777778
0.42271512774257314,6.805555555555555
0.24410949983128868,6.808333333333334
0.50926583423519,6.811111111111111
0.4100195089584676,6.813888888888889
0.4976887681435349,6.816666666666666
0.585035139008552,6.819444444444445
2.382457248656851,6.822222222222222
0.653571344828323,6.825
0.5202338688593207,6.8277777777777775
0.6797410788649386,6.830555555555556
0.6307263204170738,6.833333333333333
0.5515921194606457,6.836111111111111
0.6577842756603974,6.838888888888889
0.7636387214088852,6.841666666666667
0.7545238594231715,6.844444444444444
0.7112759136801606,6.847222222222222
3.0719364194963004,6.85
0.894653393325272,6.852777777777778
0.8604882914762754,6.855555555555555
0.889998732031765,6.858333333333333
3.0756455947497745,6.861111111111111
0.7862720663174325,6.863888888888889
0.9194405602709176,6.866666666666666
0.8888160059190737,6.8694444444444445
0.9056794791724226,6.872222222222222
1.0535540745715044,6.875
0.8888824348125718,6.877777777777778
1.0008458010331178,6.8805555555555555
3.8064327261842483,6.883333333333334
1.019862392220648,6.886111111111111
0.9701838687944571,6.888888888888889
1.0277531606508021,6.891666666666667
1.0903832430363767,6.894444444444445
1.091118819823839,6.897222222222222
0.9477325276923618,6.9
1.0277502734337047,6.902777777777778
3.822021878356823,6.905555555555556
1.1996648657189035,6.908333333333333
1.1121932148456775,6.911111111111111
1.1321464060532216,6.913888888888889
1.1662046089304077,6.916666666666667
1.162124320107971,6.919444444444444
1.153311016095812,6.9222222222222225
1.162833959595222,6.925
1.1164306870698697,6.927777777777778
1.146986553357562,6.930555555555555
1.2163804297709677,6.933333333333334
1.2201418753656332,6.936111111111111
1.157992271227284,6.938888888888889
1.17561457255355,6.941666666666666
1.2660321148900961,6.944444444444445
1.1730367624994953,6.947222222222222
1.2940258515340555,6.95
1.2997026921328694,6.9527777777777775
1.2001770658308146,6.955555555555556
1.2196942879530865,6.958333333333333
1.2032519426269337,6.961111111111111
1.1835250330249734,6.963888888888889
1.289468489244486,6.966666666666667
1.1344707442321365,6.969444444444444
1.1938272333396114,6.972222222222222
1.1371897654134548,6.975
1.181868007947963,6.977777777777778
1.1336656106640641,6.980555555555555
1.2025051221983896,6.983333333333333
1.1857331425036497,6.986111111111111
1.0881608724296459,6.988888888888889
1.1862056748498788,6.991666666666666
1.1192817435165145,6.9944444444444445
1.083862342406886,6.997222222222222
1.1327209125860505,7.0
1.139230950264917,7.002777777777778
3.9822647081143234,7.0055555555555555
1.123072759753496,7.008333333333334
1.0922956861531545,7.011111111111111
1.0608058693239195,7.013888888888889
1.1138577303658486,7.016666666666667
4.985324809420142,7.019444444444445
0.9399509083886848,7.022222222222222
0.9708534746945586,7.025
0.90492134428973,7.027777777777778
0.9419813902133655,7.030555555555556
0.9564702398561721,7.033333333333333
0.9600605708791624,7.036111111111111
0.9301304569758395,7.038888888888889
0.8898763162004323,7.041666666666667
0.8259506307719514,7.044444444444444
0.8926224131489677,7.0472222222222225
0.7891135615174822,7.05
0.8072296293663738,7.052777777777778
0.7983291755878255,7.055555555555555
0.8103241924610962,7.058333333333334
0.8307436873038231,7.061111111111111
0.744727227454191,7.063888888888889
0.7054067572598642,7.066666666666666
0.6807647828957433,7.069444444444445
0.6697976410478048,7.072222222222222
0.6051870158828779,7.075
0.6796491038959624,7.0777777777777775
0.5516011683573929,7.080555555555556
0.5888910466835026,7.083333333333333
0.48528686560388185,7.086111111111111
0.477916581393261,7.088888888888889
0.4934759446492202,7.091666666666667
0.41406585287462644,7.094444444444444
0.3845787099062254,7.097222222222222
0.40510571430468806,7.1
0.44730513991017046,7.102777777777778
0.3533627552038283,7.105555555555555
0.32556878794041266,7.108333333333333
0.41361620370128244,7.111111111111111
0.3313785746498541,7.113888888888889
0.25490585046627273,7.116666666666666
0.1690815082110575,7.1194444444444445
0.22667824325915092,7.122222222222222
0.205669934260411,7.125
0.10939213362281414,7.127777777777778
0.12873498910968467,7.1305555555555555
-0.0018521005182489392,7.133333333333334
0.08130968469185099,7.136111111111111
0.013640301736718295,7.138888888888889
-0.04084972900024593,7.141666666666667
-0.0837430615811375,7.144444444444445
0.02498526389112682,7.147222222222222
-0.1285712839998985,7.15
-0.014492493415528315,7.152777777777778
-0.1536481516034861,7.155555555555556
-0.15093899835824282,7.158333333333333
-0.1946290746231179,7.161111111111111
-0.1720916725363559,7.163888888888889
-0.24419462971069011,7.166666666666667
-0.19721899501264725,7.169444444444444
-0.20007208424609552,7.1722222222222225
-0.41214586381639146,7.175
-0.3094297241993929,7.177777777777778
-0.33128065979535315,7.180555555555555
-0.3753208713565877,7.183333333333334
-0.41018198133748796,7.186111111111111
-0.43627625806782405,7.188888888888889
-0.38774433076358916,7.191666666666666
-0.5066380960104183,7.194444444444445
-0.5547684213013866,7.197222222222222
-0.6365062554078376,7.2
-0.5723254897427118,7.2027777777777775
-0.64803904939491,7.205555555555556
-0.5970977610566317,7.208333333333333
-0.6538396799334387,7.211111111111111
-0.6372530155156554,7.213888888888889
-0.6585227025614522,7.216666666666667
-0.7418905103868483,7.219444444444444
-0.7112056403281061,7.222222222222222
-0.6862373379307908,7.225
-0.77647273750932,7.227777777777778
1.1253311386051696,7.230555555555555
-0.7913970762255176,7.233333333333333
-0.8163024736355109,7.236111111111111
-0.8104491962692079,7.238888888888889
-0.9417596543023405,7.241666666666666
-1.0040422360309682,7.2444444444444445
-0.8891370914210986,7.247222222222222
-0.9507074536530176,7.25
-0.9013859590062234,7.252777777777778
-0.9896453863126096,7.2555555555555555
0.914877250254295,7.258333333333334
-1.0403274370429405,7.261111111111111
-1.1040335971335233,7.263888888888889
-1.071384447979131,7.266666666666667
0.7248063292470919,7.269444444444445
-0.9920290117122572,7.272222222222222
-1.1572037027695838,7.275
-1.0947059911669978,7.277777777777778
-1.0565526718530203,7.280555555555556
-1.1274315054203545,7.283333333333333
-1.092479366090155,7.286111111111111
-1.0991189911794508,7.288888888888889
2.123493691559532,7.291666666666667
-1.189568121574862,7.294444444444444
-1.1573439535187113,7.2972222222222225
-1.1269917845147923,7.3
-1.1184715318756286,7.302777777777778
-1.194762129592541,7.305555555555555
-1.2313280378051108,7.308333333333334
-1.1112930865652961,7.311111111111111
-1.1637546938335182,7.313888888888889
-1.1839278793377686,7.316666666666666
-1.2035756469501757,7.319444444444445
-1.2459351770860356,7.322222222222222
-1.0991464874978958,7.325
-1.268832679328638,7.3277777777777775
-1.1939463012735032,7.330555555555556
-1.2026960600279009,7.333333333333333
-1.1477969795207876,7.336111111111111
-1.2105245377184115,7.338888888888889
-1.0926636729696986,7.341666666666667
-1.2658146579297822,7.344444444444444
-1.2103143691881069,7.347222222222222
-1.180828867513905,7.35
-1.165992461897199,7.352777777777778
2.129558925719305,7.355555555555555
-1.096146589894816,7.358333333333333
-1.103670723796388,7.361111111111111
1.9924970358953011,7.363888888888889
-1.2152961727456357,7.366666666666666
-1.0754165146493153,7.3694444444444445
-1.0687015431908875,7.372222222222222
-1.0860028885708064,7.375
-1.126365275336276,7.377777777777778
-0.9745428645521281,7.3805555555555555
-0.9894819588051605,7.383333333333334
-1.1144679942745306,7.386111111111111
-1.0266190209016122,7.388888888888889
-1.138976964381131,7.391666666666667
0.9249212291824753,7.394444444444445
0.8536972929267168,7.397222222222222
-1.062024088784969,7.4
1.4475640357039379,7.402777777777778
1.878798175557745,7.405555555555556
-0.9468884049270855,7.408333333333333
-0.9473430108082576,7.411111111111111
1.9147158688021744,7.413888888888889
-0.9055596453837972,7.416666666666667
-0.884360898917129,7.419444444444444
-0.9384705416895875,7.4222222222222225
-0.7840271893774858,7.425
-0.8538786411489805,7.427777777777778
-0.8351637288129358,7.430555555555555
-0.7412725706266918,7.433333333333334
-0.7625342449283673,7.436111111111111
-0.7207558304262615,7.438888888888889
-0.6957113600115392,7.441666666666666
-0.703213575709702,7.444444444444445
-0.7414013248349902,7.447222222222222
-0.6132391329892657,7.45
-0.6484880610796102,7.4527777777777775
-0.684499872175245,7.455555555555556
-0.6176856189288817,7.458333333333333
-0.47641680644020046,7.461111111111111
-0.4895307538257077,7.463888888888889
-0.516854292971718,7.466666666666667
-0.4982453560270593,7.469444444444444
-0.43587390403401827,7.472222222222222
-0.47342511308752344,7.475
-0.4306428643072503,7.477777777777778
-0.4710138830024193,7.480555555555555
-0.43385622897488235,7.483333333333333
-0.4311543562965388,7.486111111111111
-0.2525687761914436,7.488888888888889
-0.2763440333062092,7.491666666666666
-0.287283056932915,7.4944444444444445
-0.19201354421401806,7.497222222222222
-0.20873690496097252,7.5
-0.2117790126945869,7.502777777777778
-0.05465350810334281,7.5055555555555555
-0.178421522793037,7.508333333333334
-0.17792101313808112,7.511111111111111
0.010369729246888656,7.513888888888889
-0.023831571639387924,7.516666666666667
-0.030019382000521518,7.519444444444445
3.142338581351182,7.522222222222222
0.05780245705546023,7.525
0.05164389783062215,7.527777777777778
0.20720338861030255,7.530555555555556
0.07924115297301403,7.533333333333333
0.20946707116394295,7.536111111111111
0.24658074349124673,7.538888888888889
0.20252219214024103,7.541666666666667
0.22582513927540154,7.544444444444444
0.2105173800770074,7.5472222222222225
0.3084495232984993,7.55
0.36631619393291126,7.552777777777778
0.36509539283279635,7.555555555555555
0.3470382518459806,7.558333333333334
0.4635257104629541,7.561111111111111
0.4142485092044235,7.563888888888889
0.47343063264650614,7.566666666666666
0.4841237276575786,7.569444444444445
0.5352521280531494,7.572222222222222
0.5906826944815542,7.575
0.5254579555051984,7.5777777777777775
0.6201037351805808,7.580555555555556
0.5925478963603561,7.583333333333333
0.7012020721002308,7.586111111111111
3.8805631685993487,7.588888888888889
0.7260364245655655,7.591666666666667
0.6729713692619718,7.594444444444444
0.7496450784290596,7.597222222222222
0.6922238246566084,7.6
2.7959495839488278,7.602777777777778
3.4372154978152336,7.605555555555555
0.7960147814709894,7.608333333333333
0.81880297319956,7.611111111111111
0.9195122103230846,7.613888888888889
0.8472069054651246,7.616666666666666
0.9044776773948338,7.6194444444444445
3.4173281791509025,7.622222222222222
0.9470822733273782,7.625
0.9353640677975719,7.627777777777778
0.9751790241490512,7.6305555555555555
0.9634887470252365,7.633333333333334
0.9689830093522889,7.636111111111111
1.0808701249974373,7.638888888888889
1.0187572939392793,7.641666666666667
1.0857512956331834,7.644444444444445
1.0654142772876785,7.647222222222222
1.1072014280689373,7.65
1.1909858515663925,7.652777777777778
1.1334181419758942,7.655555555555556
1.1028367769681222,7.658333333333333
3.1696655310688953,7.661111111111111
0.9734121401688122,7.663888888888889
1.1512276240319037,7.666666666666667
1.1168809898036856,7.669444444444444
1.2148685767060297,7.6722222222222225
1.1879900257481089,7.675
1.2312261842764343,7.677777777777778
1.0618281854022675,7.680555555555555
1.2348069043772893,7.683333333333334
1.087098353674533,7.686111111111111
1.1938633194538806,7.688888888888889
1.2175512872521477,7.691666666666666
1.105642148343255,7.694444444444445
1.3110514900902,7.697222222222222
1.1198629750702729,7.7
1.196602094974694,7.7027777777777775
1.230986132271363,7.705555555555556
1.1928760803256313,7.708333333333333
1.222354075396331,7.711111111111111
1.176134088712701,7.713888888888889
1.193667280441294,7.716666666666667
1.2520180318166954,7.719444444444444
1.2191025002808966,7.722222222222222
1.2155630930428782,7.725
1.1551112112704056,7.727777777777778
1.1526539349485574,7.730555555555555
1.1538321231981497,7.733333333333333
1.2440441879260136,7.736111111111111
1.2434806457309544,7.738888888888889
1.1213480715474344,7.741666666666666
1.1958487281606867,7.7444444444444445
1.1030598126680475,7.747222222222222
1.1197606464564454,7.75
1.1474887998161771,7.752777777777778
1.0908595326347819,7.7555555555555555
1.0562737246578742,7.758333333333334
1.0917124314707416,7.761111111111111
1.027573129686131,7.763888888888889
1.0290238388552946,7.766666666666667
1.0941602002900837,7.769444444444445
1.014258090442966,7.772222222222222
1.0379436564915068,7.775
1.0283599778338508,7.777777777777778
1.0038450716392542,7.780555555555556
0.9438894876607621,7.783333333333333
0.872872433186798,7.786111111111111
0.9061293450826318,7.788888888888889
0.9456455008476919,7.791666666666667
0.913024181740604,7.794444444444444
0.9694519088180629,7.7972222222222225
0.7450207408452545,7.8
0.8458332115765516,7.802777777777778
0.7765014096540461,7.805555555555555
0.8827902803918762,7.808333333333334
0.7677386089003801,7.811111111111111
0.678536765153912,7.813888888888889
0.7742302240164097,7.816666666666666
0.6650912352143393,7.819444444444445
0.6864073909834679,7.822222222222222
0.6599547712823749,7.825
0.6097786714109334,7.8277777777777775
0.5893763045857681,7.830555555555556
0.4972221170313594,7.833333333333333
0.5361137081506928,7.836111111111111
0.5385670201366191,7.838888888888889
0.5191841616889977,7.841666666666667
0.6259070763584954,7.844444444444444
0.5419131864808245,7.847222222222222
0.45663969763859497,7.85
0.39413842695849943,7.852777777777778
0.5211531494352526,7.855555555555555
0.4140928591828622,7.858333333333333
0.40921930543802393,7.861111111111111
0.2737265384326106,7.863888888888889
0.2693997196570175,7.866666666666666
0.2934595707174046,7.8694444444444445
0.1797266060392831,7.872222222222222
0.26378508117172544,7.875
0.1595702445678454,7.877777777777778
0.10592931530108847,7.8805555555555555
0.058933844391486766,7.883333333333334
0.01945796898586681,7.886111111111111
0.05757587839065195,7.888888888888889
-0.045791914333477846,7.891666666666667
-0.12235469572419842,7.894444444444445
-0.04963682332165428,7.897222222222222
-0.13781768052027807,7.9
-0.13350845294695987,7.902777777777778
-0.07130228151437387,7.905555555555556
-0.1904381676543229,7.908333333333333
-0.14747234813656712,7.911111111111111
2.9371379739199015,7.913888888888889
-0.1901605810720078,7.916666666666667
-0.29363208037500493,7.919444444444444
-0.2353117185507939,7.9222222222222225
2.4400491227974115,7.925
-0.278431263273567,7.927777777777778
-0.36989086928929565,7.930555555555555
-0.37158913839290314,7.933333333333334
-0.514261236394444,7.936111111111111
-0.3984250777278671,7.938888888888889
-0.4934736699201008,7.941666666666666
-0.4409425960507539,7.944444444444445
-0.5918086222846396,7.947222222222222
-0.5555906078235097,7.95
-0.5849976017976365,7.9527777777777775
-0.625644548318885,7.955555555555556
-0.6487908682270523,7.958333333333333
-0.6398845189918188,7.961111111111111
-0.7352057761222259,7.963888888888889
-0.601770591953068,7.966666666666667
-0.8164035399100806,7.969444444444444
-0.7519869273457563,7.972222222222222
-0.82820597979894,7.975
-0.7819184170843199,7.977777777777778
-0.7040160376065066,7.980555555555555
-0.7024061801271483,7.983333333333333
-0.8605899099427512,7.986111111111111
-0.9065540647258317,7.988888888888889
-0.8913559922518941,7.991666666666666
-0.9279348953169219,7.9944444444444445
-0.930480222841853,7.997222222222222
-0.9560316404386023,8.0
0.6339195264726307,8.002777777777778
-0.9906121309767854,8.005555555555556
-0.9446511338442387,8.008333333333333
-0.9166449006100093,8.011111111111111
1.7114099943391716,8.01388888888889
-0.9873533907467423,8.016666666666667
-1.0042463568463869,8.019444444444444
-1.0849501077078132,8.022222222222222
-1.0782789440361702,8.025
-0.9784639561683715,8.027777777777779
-1.063574593014295,8.030555555555555
-1.0820129390541824,8.033333333333333
-1.0582521297254255,8.036111111111111
1.7145948646294977,8.03888888888889
-1.0998495392477314,8.041666666666666
-1.2308388640992594,8.044444444444444
-1.2159964273049606,8.047222222222222
-1.168822311946969,8.05
-1.1440796526296984,8.052777777777777
-1.287076705410851,8.055555555555555
-1.2124262223485103,8.058333333333334
-1.2745931006436526,8.061111111111112
-1.1502007384578343,8.063888888888888
-1.2574580965622288,8.066666666666666
-1.2048829793010498,8.069444444444445
-1.2595050118349105,8.072222222222223
-1.2375885443942738,8.075
-1.2133656004054914,8.077777777777778
-1.1867854886333185,8.080555555555556
-1.2546838315217606,8.083333333333334
-1.1511337653711444,8.08611111111111
-1.198188233541209,8.088888888888889
-1.153179858758609,8.091666666666667
-1.11911434226363,8.094444444444445
-1.2351476597325857,8.097222222222221
-1.2995756737025954,8.1
-1.1400869855252074,8.102777777777778
-1.0951237571169823,8.105555555555556
-1.234763380325044,8.108333333333333
-1.105859569085181,8.11111111111111
-1.198210823336903,8.113888888888889
-1.1541918416699017,8.116666666666667
-1.0896173502622286,8.119444444444444
-1.1382494577026059,8.122222222222222
-1.1139463696398821,8.125
-1.1371004163091696,8.127777777777778
-1.1220322310399116,8.130555555555556
-1.1073312887468516,8.133333333333333
-1.0754974585513137,8.136111111111111
-1.043157550967415,8.13888888888889
-1.0661401333900127,8.141666666666667
-0.9822909067388261,8.144444444444444
-1.0329983847670652,8.147222222222222
-1.0610705691699218,8.15
2.070412906664321,8.152777777777779
-1.0061297399347804,8.155555555555555
-0.9063655213748038,8.158333333333333
-0.9541747667757451,8.161111111111111
-0.8937477951709272,8.16388888888889
-0.99309940390586,8.166666666666666
-0.815579904466584,8.169444444444444
-0.8409499704887374,8.172222222222222
-0.9443975773079152,8.175
-0.8871102426793207,8.177777777777777
-0.8778902042985602,8.180555555555555
0.6230285811449916,8.183333333333334
-0.8723340536276474,8.186111111111112
-0.70762139001367,8.188888888888888
-0.7961369299985087,8.191666666666666
-0.758926354061301,8.194444444444445
-0.728411618451044,8.197222222222223
-0.6730011180430846,8.2
-0.6701725904334578,8.202777777777778
-0.537715575831528,8.205555555555556
-0.6031077216140718,8.208333333333334
-0.6406148525664199,8.21111111111111
-0.4936294524541404,8.213888888888889
-0.5150002079250569,8.216666666666667
-0.4831222264776282,8.219444444444445
-0.43534666343088374,8.222222222222221
-0.4274265011890975,8.225
1.805877068726614,8.227777777777778
-0.4006309706731446,8.230555555555556
-0.4018660130924344,8.233333333333333
-0.3810348427767735,8.23611111111111
-0.3123744595335517,8.238888888888889
-0.31464339823571674,8.241666666666667
-0.2985523121358273,8.244444444444444
-0.14672600786093423,8.247222222222222
-0.19275017619690746,8.25
-0.18671160347242394,8.252777777777778
-0.1413798797828921,8.255555555555556
-0.028039173591763084,8.258333333333333
-0.08679577185280375,8.261111111111111
0.022493465961667847,8.26388888888889
0.05373871419231905,8.266666666666667
-0.08252166857995047,8.269444444444444
-0.02020904313062529,8.272222222222222
0.08615641309540056,8.275
0.07403020694900878,8.277777777777779
0.1696420460230642,8.280555555555555
0.11343884497068517,8.283333333333333
0.13858267318665055,8.286111111111111
0.1637110650856828,8.28888888888889
0.21372526639998884,8.291666666666666
0.21765356684679546,8.294444444444444
0.23666633041305998,8.297222222222222
0.3319859302231709,8.3
0.2936280005753075,8.302777777777777
0.2977910453892657,8.305555555555555
0.24504615970944768,8.308333333333334
0.3817899442123139,8.311111111111112
0.5049960259015344,8.313888888888888
0.46683256106115684,8.316666666666666
0.4858800886314264,8.319444444444445
0.4995379588386685,8.322222222222223
0.5113046627684354,8.325
0.5819478516410036,8.327777777777778
0.47404458385048553,8.330555555555556
0.5609811880417637,8.333333333333334
0.6656285582037448,8.33611111111111
0.666984805328079,8.338888888888889
0.6136076119879947,8.341666666666667
0.7504900600211062,8.344444444444445
0.7133321899907785,8.347222222222221
0.7332667992789296,8.35
0.7531848917742142,8.352777777777778
0.7092447145182135,8.355555555555556
0.7563055358242475,8.358333333333333
0.8406271663714104,8.36111111111111
0.9497517458636974,8.363888888888889
0.9202226935950831,8.366666666666667
0.8942625322231299,8.369444444444444
0.840542174153024,8.372222222222222
0.9886980546657363,8.375
1.0464725894168814,8.377777777777778
3.1783338628822815,8.380555555555556
0.9451659046907809,8.383333333333333
0.9567995307619099,8.386111111111111
1.0265123207742954,8.38888888888889
1.040590496760532,8.391666666666667
1.0414584914887284,8.394444444444444
1.088017608953872,8.397222222222222
0.9891414558352225,8.4
1.122900213280476,8.402777777777779
1.094622373574924,8.405555555555555
1.1500592115603114,8.408333333333333
1.1140731724960529,8.411111111111111
1.0710866673123305,8.41388888888889
1.192852116015508,8.416666666666666
1.1280126025196664,8.419444444444444
1.1638504639253557,8.422222222222222
1.1592239098769002,8.425
1.1961971624816958,8.427777777777777
2.598951188928484,8.430555555555555
1.2934476770278884,8.433333333333334
1.1418186991091333,8.436111111111112
1.123440544922457,8.438888888888888
1.1029682607154576,8.441666666666666
1.2275156577012845,8.444444444444445
1.0868037450486483,8.447222222222223
1.1300247205253124,8.45
1.2681155365576606,8.452777777777778
1.2000604878089278,8.455555555555556
3.7173009756374826,8.458333333333334
1.2213852406042327,8.46111111111111
1.19791800163327,8.463888888888889
1.2462039472408575,8.466666666666667
1.2458432596630267,8.469444444444445
1.282575111301595,8.472222222222221
1.214149975433787,8.475
1.0606590390662927,8.477777777777778
1.1861546708137982,8.480555555555556
1.1932865742304712,8.483333333333333
1.2186668394977729,8.48611111111111
1.1328050053870657,8.488888888888889
1.2501185285879843,8.491666666666667
3.571081618286094,8.494444444444444
1.1074522939381306,8.497222222222222
1.0906943076110847,8.5
1.122595544965818,8.502777777777778
1.0571602475506308,8.505555555555556
1.0495000543977266,8.508333333333333
1.12082555569877,8.511111111111111
1.0939866756690149,8.51388888888889
1.0336375889473775,8.516666666666667
1.0330996496786695,8.519444444444444
1.0877569338364264,8.522222222222222
0.9871549863044782,8.525
0.9814470682760033,8.527777777777779
0.9198701748788507,8.530555555555555
0.8938102064424556,8.533333333333333
0.9257084998952103,8.536111111111111
0.9044460615812492,8.53888888888889
0.965597667044534,8.541666666666666
0.8265519973955979,8.544444444444444
1.0761664375298243,8.547222222222222
1.0287763892138224,8.55
0.7811736833930802,8.552777777777777
0.8440465176893942,8.555555555555555
0.851849183858583,8.558333333333334
0.7560493408022327,8.561111111111112
0.7365374843906486,8.563888888888888
0.6558385000952845,8.566666666666666
0.8178887347196474,8.569444444444445
0.7089098861336927,8.572222222222223
0.5884310470340712,8.575
0.6287894739955396,8.577777777777778
0.6347824049872494,8.580555555555556
0.6136026290066372,8.583333333333334
0.6422080248325012,8.58611111111111
0.5599811983530704,8.588888888888889
0.527647624738021,8.591666666666667
0.47729246186912755,8.594444444444445
0.5644411703202851,8.597222222222221
0.4600416773366071,8.6
0.4929953653150109,8.602777777777778
0.4166306993703586,8.605555555555556
0.3845383108186024,8.608333333333333
0.4394547593097081,8.61111111111111
3.1766665507359155,8.613888888888889
0.3027116736417287,8.616666666666667
0.2885199964058221,8.619444444444444
0.1758908492237637,8.622222222222222
0.17554699283310973,8.625
0.19044179005302314,8.627777777777778
0.15105195198409185,8.630555555555556
0.11980807115145699,8.633333333333333
0.14984005666853314,8.636111111111111
0.06541290892026626,8.63888888888889
0.15346843632953105,8.641666666666667
0.005588478943856518,8.644444444444444
-0.004947940446617611,8.647222222222222
-0.12387144534521402,8.65
-0.02743200375272968,8.652777777777779
0.013004150260864336,8.655555555555555
-0.15909347224605683,8.658333333333333
-0.16894290016589963,8.661111111111111
-0.11676082935797985,8.66388888888889
-0.22473349331186007,8.666666666666666
-0.2296568009419418,8.669444444444444
-0.24796029111816173,8.672222222222222
-0.3547964328747561,8.675
-0.30738977779494037,8.677777777777777
-0.4004712935289502,8.680555555555555
-0.3355777921310835,8.683333333333334
-0.3227736194293246,8.686111111111112
-0.4085250145261774,8.688888888888888
-0.41221910083906665,8.691666666666666
1.6719113877067162,8.694444444444445
-0.5225936615761978,8.697222222222223
-0.5741952241707656,8.7
-0.5593404246508018,8.702777777777778
-0.5713928096307214,8.705555555555556
-0.6410637846310222,8.708333333333334
-0.5975653739049664,8.71111111111111
-0.6678741685337981,8.713888888888889
-0.6535240845336713,8.716666666666667
2.5780542879550903,8.719444444444445
-0.6835824962165669,8.722222222222221
-0.6786416428781403,8.725
-0.7600887683465438,8.727777777777778
1.9971070454417708,8.730555555555556
-0.8121171384037424,8.733333333333333
-0.7850273238485682,8.73611111111111
-0.8449511018386795,8.738888888888889
0.8998675460238976,8.741666666666667
-0.7938388213211592,8.744444444444444
-0.8479696216193189,8.747222222222222
-0.9134007379401993,8.75
-0.9607194475487602,8.752777777777778
-0.8626955499119765,8.755555555555556
-0.9648231403745993,8.758333333333333
-1.0241979633533627,8.761111111111111
-0.966922514446276,8.76388888888889
-1.0898619182119011,8.766666666666667
-0.9716492977146254,8.769444444444444
-1.0250597503085828,8.772222222222222
-1.031373479553793,8.775
-1.0449472617496975,8.777777777777779
-1.1290842787532682,8.780555555555555
-1.1117186841377307,8.783333333333333
-1.084034534002054,8.786111111111111
-1.1020091129239256,8.78888888888889
-1.1602699370636695,8.791666666666666
-1.173246584704854,8.794444444444444
-1.1708027718941163,8.797222222222222
0.5677946082502163,8.8
-1.103830165438459,8.802777777777777
-1.0872646864945172,8.805555555555555
-1.1777666119158323,8.808333333333334
-1.1967733123771531,8.811111111111112
-1.203391709933092,8.813888888888888
-1.1859714046422656,8.816666666666666
-1.2403544456062228,8.819444444444445
1.330161122839691,8.822222222222223
-1.224550905096585,8.825
0.5105946783778244,8.827777777777778
-1.2270103423972478,8.830555555555556
-1.2429672074099056,8.833333333333334
-1.2118743309205995,8.83611111111111
-1.262828327833776,8.838888888888889
-1.197314040258351,8.841666666666667
0.627081489717527,8.844444444444445
-1.0702509202210004,8.847222222222221
-1.274429463048238,8.85
-1.2618004012298236,8.852777777777778
-1.1517754765622745,8.855555555555556
-1.153500767429045,8.858333333333333
-1.2650668707186061,8.86111111111111
-1.1086547449368611,8.863888888888889
-1.0942218550285396,8.866666666666667
-1.189680190442505,8.869444444444444
-1.10700970397285,8.872222222222222
-1.1342863593845423,8.875
-1.0442866938272777,8.877777777777778
-1.1659766215488065,8.880555555555556
-1.0690555325106739,8.883333333333333
-1.0011658938199761,8.886111111111111
-1.157666620721206,8.88888888888889
-1.0615521169946849,8.891666666666667
-1.0846201626043481,8.894444444444444
-1.0758912693066671,8.897222222222222
-1.0672874572052033,8.9
-0.9655558963159842,8.902777777777779
-0.9492329168578522,8.905555555555555
-1.0090859106758097,8.908333333333333
-0.9530482249703446,8.911111111111111
-0.8941712029903808,8.91388888888889
-0.8367173750989741,8.916666666666666
-0.8694588012506028,8.919444444444444
-0.8579040615570517,8.922222222222222
-0.8418967601361543,8.925
-0.9079405630245052,8.927777777777777
-0.8627493190668569,8.930555555555555
-0.8115627392092389,8.933333333333334
-0.835085816932789,8.936111111111112
-0.8041020033147608,8.938888888888888
-0.7638141266907459,8.941666666666666
-0.7728175305178111,8.944444444444445
-0.6627324436377375,8.947222222222223
-0.6271417173246702,8.95
-0.6684143970682305,8.952777777777778
-0.7408597937323882,8.955555555555556
-0.5591926486818917,8.958333333333334
-0.5538430898498452,8.96111111111111
-0.5277777261745589,8.963888888888889
-0.5624813520253565,8.966666666666667
-0.47865390570188787,8.969444444444445
-0.505172536821747,8.972222222222221
-0.5130829468327538,8.975
-0.5273181154488533,8.977777777777778
-0.39531833519920817,8.980555555555556
-0.41234952404475506,8.983333333333333
-0.31081682698706964,8.98611111111111
-0.32634570530755425,8.988888888888889
-0.3040771094914753,8.991666666666667
-0.2594326708188271,8.994444444444444
-0.223632439670022,8.997222222222222
-0.22308711074647525,9.0
-0.20578145858353425,9.002777777777778
-0.09454695526569067,9.005555555555556
-0.11647017095755946,9.008333333333333
-0.21952346557651445,9.011111111111111
-0.10107688546682542,9.01388888888889
-0.08226670066995224,9.016666666666667
0.0011208461186297883,9.019444444444444
0.012175484994877823,9.022222222222222
-0.046797619367325446,9.025
0.07187852782263555,9.027777777777779
0.12888215398217412,9.030555555555555
0.13419963756253567,9.033333333333333
0.19120783804165237,9.036111111111111
0.10418185297398883,9.03888888888889
0.18137158073572496,9.041666666666666
0.13809069155588333,9.044444444444444
0.2513730273948872,9.047222222222222
0.31429676885859964,9.05
0.33540195279189816,9.052777777777777
0.27758615867798764,9.055555555555555
0.3401535241003022,9.058333333333334
0.40419439578542316,9.061111111111112
0.37224538694290404,9.063888888888888
0.44241452585137747,9.066666666666666
0.49398123687213774,9.069444444444445
0.4976973292659925,9.072222222222223
0.49673054658395155,9.075
0.4973485780805793,9.077777777777778
0.5643707015405611,9.080555555555556
0.6205690928657236,9.083333333333334
0.7013476265372642,9.08611111111111
0.7167364212742149,9.088888888888889
0.5550268474857847,9.091666666666667
0.8062111980178687,9.094444444444445
0.7699166051109267,9.097222222222221
0.7030031765979032,9.1
0.7527363809291119,9.102777777777778
0.7905541246880404,9.105555555555556
0.7763015918554895,9.108333333333333
0.7930105918023338,9.11111111111111
3.7147504801612827,9.113888888888889
0.7819541204967322,9.116666666666667
0.8725982618306921,9.119444444444444
0.8766689737603746,9.122222222222222
0.8904773040633318,9.125
0.9838787755522946,9.127777777777778
0.8915325248200917,9.130555555555556
0.9330051798900582,9.133333333333333
1.015483632328189,9.136111111111111
0.9444104162413196,9.13888888888889
1.0422342348039644,9.141666666666667
